3996.42673	0.93968
3994.49795	0.94021
3992.56918	0.94030
3990.64040	0.94023
3988.71162	0.94019
3986.78284	0.94017
3984.85407	0.94039
3982.92529	0.94056
3980.99651	0.94024
3979.06773	0.93983
3977.13896	0.93974
3975.21018	0.93987
3973.28140	0.94015
3971.35262	0.94061
3969.42385	0.94108
3967.49507	0.94120
3965.56629	0.94099
3963.63752	0.94074
3961.70874	0.94093
3959.77996	0.94155
3957.85118	0.94190
3955.92241	0.94150
3953.99363	0.94072
3952.06485	0.94045
3950.13607	0.94087
3948.20730	0.94130
3946.27852	0.94124
3944.34974	0.94118
3942.42096	0.94166
3940.49219	0.94177
3938.56341	0.94108
3936.63463	0.94033
3934.70585	0.93989
3932.77708	0.94018
3930.84830	0.94122
3928.91952	0.94178
3926.99075	0.94137
3925.06197	0.94108
3923.13319	0.94133
3921.20441	0.94125
3919.27564	0.94102
3917.34686	0.94138
3915.41808	0.94179
3913.48930	0.94164
3911.56053	0.94126
3909.63175	0.94065
3907.70297	0.93930
3905.77419	0.93817
3903.84542	0.93913
3901.91664	0.94115
3899.98786	0.94236
3898.05908	0.94275
3896.13031	0.94194
3894.20153	0.94032
3892.27275	0.94008
3890.34397	0.94133
3888.41520	0.94092
3886.48642	0.94002
3884.55764	0.94071
3882.62887	0.94087
3880.70009	0.94085
3878.77131	0.94091
3876.84253	0.93941
3874.91376	0.93835
3872.98498	0.93883
3871.05620	0.93987
3869.12742	0.94139
3867.19865	0.94124
3865.26987	0.94016
3863.34109	0.94106
3861.41231	0.94247
3859.48354	0.94204
3857.55476	0.93976
3855.62598	0.93746
3853.69720	0.94022
3851.76843	0.94512
3849.83965	0.94469
3847.91087	0.94240
3845.98210	0.94090
3844.05332	0.94071
3842.12454	0.94053
3840.19576	0.93930
3838.26699	0.93923
3836.33821	0.94061
3834.40943	0.94101
3832.48065	0.94134
3830.55188	0.94214
3828.62310	0.94225
3826.69432	0.94186
3824.76554	0.94086
3822.83677	0.93956
3820.90799	0.94058
3818.97921	0.94213
3817.05043	0.94247
3815.12166	0.94372
3813.19288	0.94379
3811.26410	0.94180
3809.33533	0.93995
3807.40655	0.94043
3805.47777	0.94149
3803.54899	0.94055
3801.62022	0.94114
3799.69144	0.94330
3797.76266	0.94341
3795.83388	0.94339
3793.90511	0.94345
3791.97633	0.94254
3790.04755	0.94161
3788.11877	0.94115
3786.19000	0.94142
3784.26122	0.94232
3782.33244	0.94211
3780.40366	0.94136
3778.47489	0.94202
3776.54611	0.94263
3774.61733	0.94191
3772.68855	0.94074
3770.75978	0.94066
3768.83100	0.94179
3766.90222	0.94221
3764.97345	0.94202
3763.04467	0.94153
3761.11589	0.94061
3759.18711	0.94037
3757.25834	0.94024
3755.32956	0.93889
3753.40078	0.93745
3751.47200	0.93884
3749.54323	0.94216
3747.61445	0.94196
3745.68567	0.94111
3743.75689	0.94359
3741.82812	0.94427
3739.89934	0.94159
3737.97056	0.93921
3736.04178	0.93995
3734.11301	0.94309
3732.18423	0.94444
3730.25545	0.94332
3728.32668	0.94175
3726.39790	0.94111
3724.46912	0.94105
3722.54034	0.94103
3720.61157	0.94175
3718.68279	0.94252
3716.75401	0.94200
3714.82523	0.94030
3712.89646	0.93896
3710.96768	0.94062
3709.03890	0.94363
3707.11012	0.94417
3705.18135	0.94267
3703.25257	0.94154
3701.32379	0.94241
3699.39501	0.94327
3697.46624	0.94258
3695.53746	0.94122
3693.60868	0.93987
3691.67990	0.93937
3689.75113	0.94145
3687.82235	0.94426
3685.89357	0.94412
3683.96480	0.94238
3682.03602	0.94098
3680.10724	0.93974
3678.17846	0.93798
3676.24969	0.93832
3674.32091	0.94135
3672.39213	0.94204
3670.46335	0.94294
3668.53458	0.94524
3666.60580	0.94480
3664.67702	0.94278
3662.74824	0.94156
3660.81947	0.94124
3658.89069	0.94074
3656.96191	0.94036
3655.03313	0.94020
3653.10436	0.93851
3651.17558	0.93644
3649.24680	0.93847
3647.31803	0.94254
3645.38925	0.94311
3643.46047	0.94214
3641.53169	0.94151
3639.60292	0.94132
3637.67414	0.94140
3635.74536	0.94157
3633.81658	0.94100
3631.88781	0.93919
3629.95903	0.93843
3628.03025	0.94141
3626.10147	0.94309
3624.17270	0.94195
3622.24392	0.94048
3620.31514	0.94030
3618.38636	0.94167
3616.45759	0.94214
3614.52881	0.94121
3612.60003	0.94038
3610.67125	0.94016
3608.74248	0.94088
3606.81370	0.94185
3604.88492	0.94134
3602.95615	0.94010
3601.02737	0.94000
3599.09859	0.94059
3597.16981	0.94053
3595.24104	0.94062
3593.31226	0.94135
3591.38348	0.94133
3589.45470	0.94098
3587.52593	0.94265
3585.59715	0.94442
3583.66837	0.94338
3581.73959	0.94149
3579.81082	0.94070
3577.88204	0.94089
3575.95326	0.94130
3574.02448	0.94133
3572.09571	0.94030
3570.16693	0.93862
3568.23815	0.93864
3566.30938	0.94134
3564.38060	0.94285
3562.45182	0.94220
3560.52304	0.94154
3558.59427	0.94147
3556.66549	0.94124
3554.73671	0.94055
3552.80793	0.94017
3550.87916	0.94037
3548.95038	0.94017
3547.02160	0.93986
3545.09282	0.94035
3543.16405	0.94090
3541.23527	0.94075
3539.30649	0.94033
3537.37771	0.94032
3535.44894	0.94059
3533.52016	0.94037
3531.59138	0.93988
3529.66260	0.94005
3527.73383	0.94058
3525.80505	0.94061
3523.87627	0.94056
3521.94750	0.94070
3520.01872	0.94059
3518.08994	0.94055
3516.16116	0.94078
3514.23239	0.94080
3512.30361	0.94033
3510.37483	0.93988
3508.44605	0.93999
3506.51728	0.93999
3504.58850	0.93969
3502.65972	0.93994
3500.73094	0.94022
3498.80217	0.93993
3496.87339	0.93991
3494.94461	0.94052
3493.01583	0.94092
3491.08706	0.94049
3489.15828	0.93980
3487.22950	0.93973
3485.30073	0.93998
3483.37195	0.93997
3481.44317	0.93985
3479.51439	0.94004
3477.58562	0.94039
3475.65684	0.94034
3473.72806	0.93987
3471.79928	0.93966
3469.87051	0.93974
3467.94173	0.93951
3466.01295	0.93929
3464.08417	0.93956
3462.15540	0.93974
3460.22662	0.93941
3458.29784	0.93902
3456.36906	0.93895
3454.44029	0.93901
3452.51151	0.93912
3450.58273	0.93933
3448.65396	0.93954
3446.72518	0.93978
3444.79640	0.93987
3442.86762	0.93972
3440.93885	0.93968
3439.01007	0.93982
3437.08129	0.93985
3435.15251	0.93978
3433.22374	0.93970
3431.29496	0.93950
3429.36618	0.93919
3427.43740	0.93904
3425.50863	0.93894
3423.57985	0.93882
3421.65107	0.93897
3419.72229	0.93920
3417.79352	0.93912
3415.86474	0.93891
3413.93596	0.93883
3412.00718	0.93868
3410.07841	0.93817
3408.14963	0.93784
3406.22085	0.93836
3404.29208	0.93915
3402.36330	0.93928
3400.43452	0.93906
3398.50574	0.93902
3396.57697	0.93897
3394.64819	0.93868
3392.71941	0.93829
3390.79063	0.93809
3388.86186	0.93806
3386.93308	0.93812
3385.00430	0.93833
3383.07552	0.93867
3381.14675	0.93894
3379.21797	0.93902
3377.28919	0.93893
3375.36041	0.93871
3373.43164	0.93862
3371.50286	0.93887
3369.57408	0.93906
3367.64531	0.93886
3365.71653	0.93868
3363.78775	0.93873
3361.85897	0.93854
3359.93020	0.93804
3358.00142	0.93764
3356.07264	0.93752
3354.14386	0.93763
3352.21509	0.93777
3350.28631	0.93795
3348.35753	0.93830
3346.42875	0.93863
3344.49998	0.93878
3342.57120	0.93879
3340.64242	0.93851
3338.71364	0.93820
3336.78487	0.93830
3334.85609	0.93846
3332.92731	0.93850
3330.99853	0.93857
3329.06976	0.93829
3327.14098	0.93783
3325.21220	0.93794
3323.28343	0.93847
3321.35465	0.93891
3319.42587	0.93901
3317.49709	0.93870
3315.56832	0.93844
3313.63954	0.93850
3311.71076	0.93865
3309.78198	0.93864
3307.85321	0.93842
3305.92443	0.93821
3303.99565	0.93831
3302.06687	0.93871
3300.13810	0.93906
3298.20932	0.93895
3296.28054	0.93854
3294.35176	0.93850
3292.42299	0.93898
3290.49421	0.93930
3288.56543	0.93899
3286.63666	0.93846
3284.70788	0.93827
3282.77910	0.93848
3280.85032	0.93872
3278.92155	0.93853
3276.99277	0.93806
3275.06399	0.93797
3273.13521	0.93861
3271.20644	0.93927
3269.27766	0.93920
3267.34888	0.93870
3265.42010	0.93838
3263.49133	0.93847
3261.56255	0.93895
3259.63377	0.93939
3257.70499	0.93930
3255.77622	0.93904
3253.84744	0.93920
3251.91866	0.93963
3249.98988	0.93990
3248.06111	0.93994
3246.13233	0.93998
3244.20355	0.94019
3242.27478	0.94024
3240.34600	0.93990
3238.41722	0.93949
3236.48844	0.93937
3234.55967	0.93958
3232.63089	0.93983
3230.70211	0.93980
3228.77333	0.93969
3226.84456	0.93985
3224.91578	0.94012
3222.98700	0.94047
3221.05822	0.94103
3219.12945	0.94134
3217.20067	0.94104
3215.27189	0.94058
3213.34311	0.94044
3211.41434	0.94061
3209.48556	0.94092
3207.55678	0.94111
3205.62801	0.94108
3203.69923	0.94102
3201.77045	0.94094
3199.84167	0.94072
3197.91290	0.94058
3195.98412	0.94049
3194.05534	0.94041
3192.12656	0.94063
3190.19779	0.94104
3188.26901	0.94113
3186.34023	0.94093
3184.41145	0.94079
3182.48268	0.94081
3180.55390	0.94093
3178.62512	0.94103
3176.69634	0.94095
3174.76757	0.94070
3172.83879	0.94063
3170.91001	0.94091
3168.98123	0.94115
3167.05246	0.94100
3165.12368	0.94067
3163.19490	0.94047
3161.26613	0.94033
3159.33735	0.94045
3157.40857	0.94101
3155.47979	0.94136
3153.55102	0.94130
3151.62224	0.94139
3149.69346	0.94169
3147.76468	0.94185
3145.83591	0.94182
3143.90713	0.94182
3141.97835	0.94204
3140.04957	0.94233
3138.12080	0.94251
3136.19202	0.94254
3134.26324	0.94259
3132.33446	0.94278
3130.40569	0.94292
3128.47691	0.94295
3126.54813	0.94284
3124.61936	0.94252
3122.69058	0.94220
3120.76180	0.94212
3118.83302	0.94206
3116.90425	0.94180
3114.97547	0.94122
3113.04669	0.94030
3111.11791	0.93921
3109.18914	0.93808
3107.26036	0.93687
3105.33158	0.93574
3103.40280	0.93513
3101.47403	0.93540
3099.54525	0.93608
3097.61647	0.93629
3095.68769	0.93586
3093.75892	0.93490
3091.83014	0.93302
3089.90136	0.92967
3087.97258	0.92513
3086.04381	0.92048
3084.11503	0.91694
3082.18625	0.91562
3080.25748	0.91690
3078.32870	0.91952
3076.39992	0.92172
3074.47114	0.92281
3072.54237	0.92267
3070.61359	0.92118
3068.68481	0.91853
3066.75603	0.91505
3064.82726	0.91107
3062.89848	0.90713
3060.96970	0.90415
3059.04092	0.90318
3057.11215	0.90482
3055.18337	0.90853
3053.25459	0.91288
3051.32581	0.91675
3049.39704	0.91978
3047.46826	0.92197
3045.53948	0.92325
3043.61071	0.92339
3041.68193	0.92214
3039.75315	0.91959
3037.82437	0.91578
3035.89560	0.91006
3033.96682	0.90183
3032.03804	0.89146
3030.10926	0.88022
3028.18049	0.86997
3026.25171	0.86318
3024.32293	0.86237
3022.39415	0.86802
3020.46538	0.87800
3018.53660	0.88934
3016.60782	0.89970
3014.67904	0.90774
3012.75027	0.91323
3010.82149	0.91659
3008.89271	0.91825
3006.96394	0.91855
3005.03516	0.91778
3003.10638	0.91684
3001.17760	0.91698
2999.24883	0.91859
2997.32005	0.92122
2995.39127	0.92432
2993.46249	0.92733
2991.53372	0.92974
2989.60494	0.93127
2987.67616	0.93210
2985.74738	0.93264
2983.81861	0.93301
2981.88983	0.93313
2979.96105	0.93322
2978.03227	0.93335
2976.10350	0.93325
2974.17472	0.93296
2972.24594	0.93285
2970.31716	0.93279
2968.38839	0.93234
2966.45961	0.93158
2964.53083	0.93082
2962.60206	0.93000
2960.67328	0.92885
2958.74450	0.92730
2956.81572	0.92546
2954.88695	0.92345
2952.95817	0.92114
2951.02939	0.91837
2949.10061	0.91523
2947.17184	0.91179
2945.24306	0.90795
2943.31428	0.90364
2941.38550	0.89881
2939.45673	0.89342
2937.52795	0.88733
2935.59917	0.88051
2933.67039	0.87335
2931.74162	0.86629
2929.81284	0.85960
2927.88406	0.85352
2925.95529	0.84841
2924.02651	0.84452
2922.09773	0.84193
2920.16895	0.84059
2918.24018	0.84046
2916.31140	0.84153
2914.38262	0.84370
2912.45384	0.84655
2910.52507	0.84968
2908.59629	0.85315
2906.66751	0.85711
2904.73873	0.86145
2902.80996	0.86607
2900.88118	0.87077
2898.95240	0.87516
2897.02362	0.87918
2895.09485	0.88302
2893.16607	0.88655
2891.23729	0.88954
2889.30851	0.89192
2887.37974	0.89390
2885.45096	0.89583
2883.52218	0.89779
2881.59341	0.89972
2879.66463	0.90164
2877.73585	0.90336
2875.80707	0.90470
2873.87830	0.90565
2871.94952	0.90628
2870.02074	0.90678
2868.09196	0.90715
2866.16319	0.90709
2864.23441	0.90645
2862.30563	0.90515
2860.37685	0.90307
2858.44808	0.90021
2856.51930	0.89689
2854.59052	0.89375
2852.66174	0.89140
2850.73297	0.88985
2848.80419	0.88901
2846.87541	0.88932
2844.94664	0.89111
2843.01786	0.89419
2841.08908	0.89821
2839.16030	0.90256
2837.23153	0.90682
2835.30275	0.91098
2833.37397	0.91465
2831.44519	0.91723
2829.51642	0.91888
2827.58764	0.92020
2825.65886	0.92143
2823.73008	0.92246
2821.80131	0.92319
2819.87253	0.92368
2817.94375	0.92411
2816.01497	0.92458
2814.08620	0.92502
2812.15742	0.92545
2810.22864	0.92585
2808.29986	0.92607
2806.37109	0.92613
2804.44231	0.92632
2802.51353	0.92666
2800.58476	0.92686
2798.65598	0.92701
2796.72720	0.92730
2794.79842	0.92771
2792.86965	0.92812
2790.94087	0.92848
2789.01209	0.92863
2787.08331	0.92857
2785.15454	0.92860
2783.22576	0.92888
2781.29698	0.92923
2779.36820	0.92933
2777.43943	0.92933
2775.51065	0.92962
2773.58187	0.93009
2771.65309	0.93033
2769.72432	0.93032
2767.79554	0.93043
2765.86676	0.93056
2763.93799	0.93054
2762.00921	0.93065
2760.08043	0.93095
2758.15165	0.93112
2756.22288	0.93114
2754.29410	0.93128
2752.36532	0.93162
2750.43654	0.93186
2748.50777	0.93186
2746.57899	0.93190
2744.65021	0.93196
2742.72143	0.93186
2740.79266	0.93183
2738.86388	0.93194
2736.93510	0.93198
2735.00632	0.93191
2733.07755	0.93184
2731.14877	0.93188
2729.21999	0.93199
2727.29121	0.93205
2725.36244	0.93196
2723.43366	0.93186
2721.50488	0.93183
2719.57611	0.93184
2717.64733	0.93192
2715.71855	0.93202
2713.78977	0.93206
2711.86100	0.93207
2709.93222	0.93211
2708.00344	0.93218
2706.07466	0.93224
2704.14589	0.93225
2702.21711	0.93235
2700.28833	0.93255
2698.35955	0.93269
2696.43078	0.93261
2694.50200	0.93237
2692.57322	0.93217
2690.64444	0.93232
2688.71567	0.93272
2686.78689	0.93291
2684.85811	0.93280
2682.92934	0.93264
2681.00056	0.93258
2679.07178	0.93257
2677.14300	0.93261
2675.21423	0.93270
2673.28545	0.93277
2671.35667	0.93278
2669.42789	0.93260
2667.49912	0.93221
2665.57034	0.93199
2663.64156	0.93217
2661.71278	0.93238
2659.78401	0.93231
2657.85523	0.93220
2655.92645	0.93227
2653.99767	0.93238
2652.06890	0.93235
2650.14012	0.93229
2648.21134	0.93232
2646.28257	0.93251
2644.35379	0.93278
2642.42501	0.93291
2640.49623	0.93263
2638.56746	0.93214
2636.63868	0.93199
2634.70990	0.93225
2632.78112	0.93257
2630.85235	0.93282
2628.92357	0.93294
2626.99479	0.93298
2625.06601	0.93310
2623.13724	0.93325
2621.20846	0.93324
2619.27968	0.93321
2617.35090	0.93345
2615.42213	0.93366
2613.49335	0.93345
2611.56457	0.93296
2609.63579	0.93264
2607.70702	0.93267
2605.77824	0.93288
2603.84946	0.93290
2601.92069	0.93284
2599.99191	0.93305
2598.06313	0.93337
2596.13435	0.93357
2594.20558	0.93375
2592.27680	0.93409
2590.34802	0.93438
2588.41924	0.93438
2586.49047	0.93434
2584.56169	0.93443
2582.63291	0.93452
2580.70413	0.93451
2578.77536	0.93429
2576.84658	0.93400
2574.91780	0.93392
2572.98902	0.93409
2571.06025	0.93450
2569.13147	0.93507
2567.20269	0.93546
2565.27392	0.93533
2563.34514	0.93499
2561.41636	0.93484
2559.48758	0.93481
2557.55881	0.93470
2555.63003	0.93471
2553.70125	0.93497
2551.77247	0.93509
2549.84370	0.93479
2547.91492	0.93446
2545.98614	0.93444
2544.05736	0.93457
2542.12859	0.93483
2540.19981	0.93504
2538.27103	0.93496
2536.34225	0.93483
2534.41348	0.93502
2532.48470	0.93540
2530.55592	0.93555
2528.62714	0.93554
2526.69837	0.93549
2524.76959	0.93533
2522.84081	0.93527
2520.91204	0.93546
2518.98326	0.93551
2517.05448	0.93521
2515.12570	0.93510
2513.19693	0.93548
2511.26815	0.93582
2509.33937	0.93577
2507.41059	0.93562
2505.48182	0.93561
2503.55304	0.93564
2501.62426	0.93570
2499.69548	0.93577
2497.76671	0.93580
2495.83793	0.93568
2493.90915	0.93541
2491.98037	0.93517
2490.05160	0.93506
2488.12282	0.93509
2486.19404	0.93526
2484.26527	0.93537
2482.33649	0.93543
2480.40771	0.93554
2478.47893	0.93567
2476.55016	0.93579
2474.62138	0.93583
2472.69260	0.93587
2470.76382	0.93596
2468.83505	0.93601
2466.90627	0.93608
2464.97749	0.93612
2463.04871	0.93604
2461.11994	0.93591
2459.19116	0.93592
2457.26238	0.93614
2455.33360	0.93636
2453.40483	0.93630
2451.47605	0.93618
2449.54727	0.93619
2447.61849	0.93611
2445.68972	0.93600
2443.76094	0.93609
2441.83216	0.93626
2439.90339	0.93646
2437.97461	0.93674
2436.04583	0.93688
2434.11705	0.93678
2432.18828	0.93670
2430.25950	0.93668
2428.33072	0.93657
2426.40194	0.93653
2424.47317	0.93674
2422.54439	0.93698
2420.61561	0.93710
2418.68683	0.93715
2416.75806	0.93701
2414.82928	0.93668
2412.90050	0.93641
2410.97172	0.93631
2409.04295	0.93647
2407.11417	0.93679
2405.18539	0.93697
2403.25662	0.93706
2401.32784	0.93722
2399.39906	0.93732
2397.47028	0.93733
2395.54151	0.93725
2393.61273	0.93705
2391.68395	0.93682
2389.75517	0.93674
2387.82640	0.93676
2385.89762	0.93661
2383.96884	0.93622
2382.04006	0.93578
2380.11129	0.93548
2378.18251	0.93529
2376.25373	0.93505
2374.32495	0.93481
2372.39618	0.93455
2370.46740	0.93445
2368.53862	0.93457
2366.60984	0.93417
2364.68107	0.93368
2362.75229	0.93431
2360.82351	0.93516
2358.89474	0.93503
2356.96596	0.93458
2355.03718	0.93515
2353.10840	0.93650
2351.17963	0.93688
2349.25085	0.93567
2347.32207	0.93386
2345.39329	0.93283
2343.46452	0.93321
2341.53574	0.93404
2339.60696	0.93414
2337.67818	0.93335
2335.74941	0.93291
2333.82063	0.93330
2331.89185	0.93382
2329.96307	0.93409
2328.03430	0.93368
2326.10552	0.93241
2324.17674	0.93145
2322.24797	0.93198
2320.31919	0.93350
2318.39041	0.93442
2316.46163	0.93423
2314.53286	0.93390
2312.60408	0.93410
2310.67530	0.93464
2308.74652	0.93524
2306.81775	0.93572
2304.88897	0.93591
2302.96019	0.93594
2301.03141	0.93585
2299.10264	0.93545
2297.17386	0.93511
2295.24508	0.93508
2293.31630	0.93478
2291.38753	0.93430
2289.45875	0.93419
2287.52997	0.93420
2285.60120	0.93409
2283.67242	0.93408
2281.74364	0.93433
2279.81486	0.93478
2277.88609	0.93525
2275.95731	0.93555
2274.02853	0.93559
2272.09975	0.93556
2270.17098	0.93564
2268.24220	0.93577
2266.31342	0.93573
2264.38464	0.93562
2262.45587	0.93568
2260.52709	0.93593
2258.59831	0.93631
2256.66953	0.93667
2254.74076	0.93649
2252.81198	0.93587
2250.88320	0.93589
2248.95442	0.93668
2247.02565	0.93724
2245.09687	0.93742
2243.16809	0.93754
2241.23932	0.93738
2239.31054	0.93736
2237.38176	0.93797
2235.45298	0.93835
2233.52421	0.93779
2231.59543	0.93689
2229.66665	0.93654
2227.73787	0.93685
2225.80910	0.93710
2223.88032	0.93700
2221.95154	0.93731
2220.02276	0.93805
2218.09399	0.93820
2216.16521	0.93774
2214.23643	0.93741
2212.30765	0.93715
2210.37888	0.93699
2208.45010	0.93729
2206.52132	0.93782
2204.59255	0.93783
2202.66377	0.93735
2200.73499	0.93719
2198.80621	0.93728
2196.87744	0.93704
2194.94866	0.93681
2193.01988	0.93680
2191.09110	0.93679
2189.16233	0.93720
2187.23355	0.93810
2185.30477	0.93885
2183.37599	0.93930
2181.44722	0.93918
2179.51844	0.93854
2177.58966	0.93816
2175.66088	0.93824
2173.73211	0.93834
2171.80333	0.93793
2169.87455	0.93673
2167.94577	0.93572
2166.01700	0.93576
2164.08822	0.93634
2162.15944	0.93804
2160.23067	0.94142
2158.30189	0.94420
2156.37311	0.94485
2154.44433	0.94443
2152.51556	0.94388
2150.58678	0.94352
2148.65800	0.94299
2146.72922	0.94224
2144.80045	0.94186
2142.87167	0.94174
2140.94289	0.94191
2139.01411	0.94290
2137.08534	0.94405
2135.15656	0.94431
2133.22778	0.94382
2131.29900	0.94307
2129.37023	0.94239
2127.44145	0.94204
2125.51267	0.94167
2123.58390	0.94116
2121.65512	0.94092
2119.72634	0.94105
2117.79756	0.94119
2115.86879	0.94086
2113.94001	0.94027
2112.01123	0.94009
2110.08245	0.94026
2108.15368	0.94041
2106.22490	0.94072
2104.29612	0.94105
2102.36734	0.94082
2100.43857	0.94014
2098.50979	0.93957
2096.58101	0.93961
2094.65223	0.94039
2092.72346	0.94114
2090.79468	0.94112
2088.86590	0.94066
2086.93712	0.94029
2085.00835	0.93987
2083.07957	0.93913
2081.15079	0.93821
2079.22202	0.93784
2077.29324	0.93854
2075.36446	0.93959
2073.43568	0.94001
2071.50691	0.93985
2069.57813	0.93970
2067.64935	0.93988
2065.72057	0.94008
2063.79180	0.94002
2061.86302	0.93990
2059.93424	0.93945
2058.00546	0.93848
2056.07669	0.93787
2054.14791	0.93758
2052.21913	0.93697
2050.29035	0.93721
2048.36158	0.93846
2046.43280	0.93917
2044.50402	0.93936
2042.57525	0.93921
2040.64647	0.93862
2038.71769	0.93858
2036.78891	0.93972
2034.86014	0.94133
2032.93136	0.94183
2031.00258	0.94104
2029.07380	0.94073
2027.14503	0.94112
2025.21625	0.94103
2023.28747	0.94103
2021.35869	0.94219
2019.42992	0.94364
2017.50114	0.94378
2015.57236	0.94279
2013.64358	0.94182
2011.71481	0.94108
2009.78603	0.94108
2007.85725	0.94202
2005.92847	0.94266
2003.99970	0.94215
2002.07092	0.94104
2000.14214	0.94010
1998.21337	0.93989
1996.28459	0.94052
1994.35581	0.94155
1992.42703	0.94238
1990.49826	0.94255
1988.56948	0.94162
1986.64070	0.93945
1984.71192	0.93695
1982.78315	0.93531
1980.85437	0.93533
1978.92559	0.93756
1976.99681	0.94065
1975.06804	0.94214
1973.13926	0.94161
1971.21048	0.93997
1969.28170	0.93843
1967.35293	0.93761
1965.42415	0.93709
1963.49537	0.93669
1961.56660	0.93696
1959.63782	0.93765
1957.70904	0.93748
1955.78026	0.93636
1953.85149	0.93507
1951.92271	0.93387
1949.99393	0.93289
1948.06515	0.93221
1946.13638	0.93140
1944.20760	0.93071
1942.27882	0.93138
1940.35004	0.93256
1938.42127	0.93289
1936.49249	0.93314
1934.56371	0.93373
1932.63493	0.93403
1930.70616	0.93436
1928.77738	0.93527
1926.84860	0.93627
1924.91983	0.93684
1922.99105	0.93698
1921.06227	0.93676
1919.13349	0.93670
1917.20472	0.93744
1915.27594	0.93845
1913.34716	0.93904
1911.41838	0.93923
1909.48961	0.93909
1907.56083	0.93886
1905.63205	0.93881
1903.70327	0.93887
1901.77450	0.93855
1899.84572	0.93776
1897.91694	0.93701
1895.98816	0.93658
1894.05939	0.93626
1892.13061	0.93588
1890.20183	0.93566
1888.27305	0.93548
1886.34428	0.93463
1884.41550	0.93343
1882.48672	0.93270
1880.55795	0.93255
1878.62917	0.93251
1876.70039	0.93228
1874.77161	0.93177
1872.84284	0.93092
1870.91406	0.93028
1868.98528	0.93074
1867.05650	0.93166
1865.12773	0.93198
1863.19895	0.93220
1861.27017	0.93283
1859.34139	0.93371
1857.41262	0.93469
1855.48384	0.93559
1853.55506	0.93618
1851.62628	0.93638
1849.69751	0.93630
1847.76873	0.93620
1845.83995	0.93652
1843.91118	0.93765
1841.98240	0.93848
1840.05362	0.93842
1838.12484	0.93821
1836.19607	0.93802
1834.26729	0.93740
1832.33851	0.93667
1830.40973	0.93676
1828.48096	0.93708
1826.55218	0.93650
1824.62340	0.93587
1822.69462	0.93550
1820.76585	0.93481
1818.83707	0.93408
1816.90829	0.93365
1814.97951	0.93311
1813.05074	0.93222
1811.12196	0.93145
1809.19318	0.93097
1807.26440	0.93027
1805.33563	0.92925
1803.40685	0.92842
1801.47807	0.92840
1799.54930	0.92891
1797.62052	0.92906
1795.69174	0.92882
1793.76296	0.92925
1791.83419	0.93125
1789.90541	0.93312
1787.97663	0.93364
1786.04785	0.93381
1784.11908	0.93402
1782.19030	0.93402
1780.26152	0.93406
1778.33274	0.93414
1776.40397	0.93381
1774.47519	0.93327
1772.54641	0.93347
1770.61763	0.93420
1768.68886	0.93442
1766.76008	0.93422
1764.83130	0.93352
1762.90253	0.93281
1760.97375	0.93248
1759.04497	0.93173
1757.11619	0.93069
1755.18742	0.92957
1753.25864	0.92810
1751.32986	0.92707
1749.40108	0.92717
1747.47231	0.92717
1745.54353	0.92645
1743.61475	0.92551
1741.68597	0.92496
1739.75720	0.92503
1737.82842	0.92472
1735.89964	0.92403
1733.97086	0.92489
1732.04209	0.92633
1730.11331	0.92644
1728.18453	0.92636
1726.25575	0.92629
1724.32698	0.92646
1722.39820	0.92671
1720.46942	0.92637
1718.54065	0.92654
1716.61187	0.92883
1714.68309	0.93081
1712.75431	0.93127
1710.82554	0.93110
1708.89676	0.93063
1706.96798	0.93035
1705.03920	0.93041
1703.11043	0.92987
1701.18165	0.92934
1699.25287	0.93031
1697.32409	0.93152
1695.39532	0.93239
1693.46654	0.93226
1691.53776	0.93121
1689.60898	0.93029
1687.68021	0.92923
1685.75143	0.92829
1683.82265	0.92954
1681.89388	0.93077
1679.96510	0.93021
1678.03632	0.92915
1676.10754	0.92868
1674.17877	0.92903
1672.24999	0.92895
1670.32121	0.92900
1668.39243	0.92985
1666.46366	0.92969
1664.53488	0.92907
1662.60610	0.92951
1660.67732	0.93033
1658.74855	0.93029
1656.81977	0.92940
1654.89099	0.92881
1652.96221	0.93159
1651.03344	0.93336
1649.10466	0.93221
1647.17588	0.93240
1645.24710	0.93408
1643.31833	0.93412
1641.38955	0.93342
1639.46077	0.93296
1637.53200	0.93321
1635.60322	0.93527
1633.67444	0.93687
1631.74566	0.93655
1629.81689	0.93608
1627.88811	0.93621
1625.95933	0.93640
1624.03055	0.93674
1622.10178	0.93730
1620.17300	0.93690
1618.24422	0.93624
1616.31544	0.93687
1614.38667	0.93701
1612.45789	0.93493
1610.52911	0.93036
1608.60033	0.92189
1606.67156	0.90876
1604.74278	0.89296
1602.81400	0.87915
1600.88523	0.87352
1598.95645	0.87821
1597.02767	0.88918
1595.09889	0.90101
1593.17012	0.91023
1591.24134	0.91610
1589.31256	0.91881
1587.38378	0.91804
1585.45501	0.91459
1583.52623	0.91194
1581.59745	0.91316
1579.66867	0.91699
1577.73990	0.92187
1575.81112	0.92795
1573.88234	0.93134
1571.95356	0.93182
1570.02479	0.93300
1568.09601	0.93511
1566.16723	0.93602
1564.23845	0.93604
1562.30968	0.93525
1560.38090	0.93440
1558.45212	0.93668
1556.52335	0.93862
1554.59457	0.93825
1552.66579	0.93752
1550.73701	0.93678
1548.80824	0.93593
1546.87946	0.93477
1544.95068	0.93362
1543.02190	0.93312
1541.09313	0.93414
1539.16435	0.93668
1537.23557	0.93713
1535.30679	0.93652
1533.37802	0.93715
1531.44924	0.93837
1529.52046	0.93860
1527.59168	0.93866
1525.66291	0.93899
1523.73413	0.93917
1521.80535	0.93976
1519.87658	0.94070
1517.94780	0.94104
1516.01902	0.94129
1514.09024	0.94116
1512.16147	0.94026
1510.23269	0.93896
1508.30391	0.93812
1506.37513	0.93903
1504.44636	0.93840
1502.51758	0.93462
1500.58880	0.92600
1498.66002	0.90431
1496.73125	0.85783
1494.80247	0.80471
1492.87369	0.77593
1490.94491	0.78283
1489.01614	0.82249
1487.08736	0.85957
1485.15858	0.87960
1483.22981	0.89170
1481.30103	0.90060
1479.37225	0.90656
1477.44347	0.90989
1475.51470	0.91221
1473.58592	0.91492
1471.65714	0.91791
1469.72836	0.91886
1467.79959	0.91832
1465.87081	0.91789
1463.94203	0.91755
1462.01325	0.91544
1460.08448	0.90952
1458.15570	0.88868
1456.22692	0.83879
1454.29814	0.79374
1452.36937	0.77021
1450.44059	0.76697
1448.51181	0.78135
1446.58303	0.80155
1444.65426	0.81801
1442.72548	0.83177
1440.79670	0.84352
1438.86793	0.85340
1436.93915	0.86553
1435.01037	0.87788
1433.08159	0.88541
1431.15282	0.89159
1429.22404	0.89805
1427.29526	0.90254
1425.36648	0.90534
1423.43771	0.90772
1421.50893	0.90930
1419.58015	0.91119
1417.65137	0.91389
1415.72260	0.91509
1413.79382	0.91526
1411.86504	0.91553
1409.93626	0.91586
1408.00749	0.91599
1406.07871	0.91611
1404.14993	0.91626
1402.22116	0.91595
1400.29238	0.91533
1398.36360	0.91482
1396.43482	0.91431
1394.50605	0.91382
1392.57727	0.91296
1390.64849	0.91118
1388.71971	0.90890
1386.79094	0.90675
1384.86216	0.90462
1382.93338	0.90226
1381.00460	0.89980
1379.07583	0.89734
1377.14705	0.89491
1375.21827	0.89293
1373.28949	0.89181
1371.36072	0.89124
1369.43194	0.89109
1367.50316	0.89130
1365.57438	0.89136
1363.64561	0.89171
1361.71683	0.89296
1359.78805	0.89408
1357.85928	0.89463
1355.93050	0.89521
1354.00172	0.89590
1352.07294	0.89637
1350.14417	0.89661
1348.21539	0.89685
1346.28661	0.89726
1344.35783	0.89786
1342.42906	0.89858
1340.50028	0.89971
1338.57150	0.90109
1336.64272	0.90161
1334.71395	0.90089
1332.78517	0.89954
1330.85639	0.89826
1328.92761	0.89751
1326.99884	0.89744
1325.07006	0.89800
1323.14128	0.89876
1321.21251	0.89930
1319.28373	0.89952
1317.35495	0.89943
1315.42617	0.89914
1313.49740	0.89892
1311.56862	0.89891
1309.63984	0.89913
1307.71106	0.89968
1305.78229	0.90052
1303.85351	0.90145
1301.92473	0.90233
1299.99595	0.90318
1298.06718	0.90400
1296.13840	0.90465
1294.20962	0.90504
1292.28084	0.90535
1290.35207	0.90578
1288.42329	0.90629
1286.49451	0.90665
1284.56573	0.90683
1282.63696	0.90705
1280.70818	0.90749
1278.77940	0.90807
1276.85063	0.90867
1274.92185	0.90934
1272.99307	0.91014
1271.06429	0.91104
1269.13552	0.91187
1267.20674	0.91239
1265.27796	0.91267
1263.34918	0.91303
1261.42041	0.91349
1259.49163	0.91381
1257.56285	0.91396
1255.63407	0.91398
1253.70530	0.91396
1251.77652	0.91410
1249.84774	0.91439
1247.91896	0.91453
1245.99019	0.91449
1244.06141	0.91453
1242.13263	0.91474
1240.20386	0.91502
1238.27508	0.91533
1236.34630	0.91571
1234.41752	0.91607
1232.48875	0.91630
1230.55997	0.91641
1228.63119	0.91660
1226.70241	0.91684
1224.77364	0.91694
1222.84486	0.91693
1220.91608	0.91704
1218.98730	0.91725
1217.05853	0.91730
1215.12975	0.91720
1213.20097	0.91710
1211.27219	0.91696
1209.34342	0.91662
1207.41464	0.91598
1205.48586	0.91516
1203.55708	0.91429
1201.62831	0.91332
1199.69953	0.91236
1197.77075	0.91174
1195.84198	0.91150
1193.91320	0.91141
1191.98442	0.91112
1190.05564	0.91042
1188.12687	0.90913
1186.19809	0.90699
1184.26931	0.90407
1182.34053	0.90143
1180.41176	0.90078
1178.48298	0.90290
1176.55420	0.90661
1174.62542	0.91007
1172.69665	0.91259
1170.76787	0.91424
1168.83909	0.91527
1166.91031	0.91602
1164.98154	0.91633
1163.05276	0.91560
1161.12398	0.91331
1159.19521	0.90935
1157.26643	0.90468
1155.33765	0.90136
1153.40887	0.90113
1151.48010	0.90418
1149.55132	0.90901
1147.62254	0.91350
1145.69376	0.91651
1143.76499	0.91839
1141.83621	0.91989
1139.90743	0.92125
1137.97865	0.92235
1136.04988	0.92317
1134.12110	0.92379
1132.19232	0.92423
1130.26354	0.92452
1128.33477	0.92465
1126.40599	0.92477
1124.47721	0.92497
1122.54844	0.92505
1120.61966	0.92462
1118.69088	0.92368
1116.76210	0.92265
1114.83333	0.92186
1112.90455	0.92146
1110.97577	0.92141
1109.04699	0.92157
1107.11822	0.92190
1105.18944	0.92227
1103.26066	0.92247
1101.33188	0.92225
1099.40311	0.92167
1097.47433	0.92113
1095.54555	0.92070
1093.61677	0.92022
1091.68800	0.91961
1089.75922	0.91893
1087.83044	0.91806
1085.90166	0.91688
1083.97289	0.91544
1082.04411	0.91379
1080.11533	0.91189
1078.18656	0.90951
1076.25778	0.90636
1074.32900	0.90265
1072.40022	0.89888
1070.47145	0.89566
1068.54267	0.89391
1066.61389	0.89434
1064.68511	0.89636
1062.75634	0.89890
1060.82756	0.90137
1058.89878	0.90340
1056.97000	0.90469
1055.04123	0.90517
1053.11245	0.90480
1051.18367	0.90346
1049.25489	0.90175
1047.32612	0.90051
1045.39734	0.89986
1043.46856	0.89985
1041.53979	0.90032
1039.61101	0.90013
1037.68223	0.89729
1035.75345	0.88981
1033.82468	0.87727
1031.89590	0.86209
1029.96712	0.84865
1028.03834	0.84113
1026.10957	0.84108
1024.18079	0.84604
1022.25201	0.85204
1020.32323	0.85730
1018.39446	0.86218
1016.46568	0.86721
1014.53690	0.87232
1012.60812	0.87718
1010.67935	0.88159
1008.75057	0.88522
1006.82179	0.88733
1004.89301	0.88789
1002.96424	0.88878
1001.03546	0.89174
999.10668	0.89606
997.17791	0.90004
995.24913	0.90289
993.32035	0.90442
991.39157	0.90504
989.46280	0.90534
987.53402	0.90513
985.60524	0.90406
983.67646	0.90253
981.74769	0.90130
979.81891	0.90086
977.89013	0.90117
975.96135	0.90199
974.03258	0.90284
972.10380	0.90300
970.17502	0.90204
968.24624	0.90020
966.31747	0.89840
964.38869	0.89752
962.45991	0.89809
960.53114	0.90032
958.60236	0.90357
956.67358	0.90656
954.74480	0.90856
952.81603	0.90985
950.88725	0.91077
948.95847	0.91124
947.02969	0.91123
945.10092	0.91096
943.17214	0.91077
941.24336	0.91101
939.31458	0.91205
937.38581	0.91381
935.45703	0.91572
933.52825	0.91736
931.59947	0.91882
929.67070	0.92005
927.74192	0.92064
925.81314	0.92081
923.88436	0.92096
921.95559	0.92077
920.02681	0.91974
918.09803	0.91759
916.16926	0.91418
914.24048	0.90937
912.31170	0.90319
910.38292	0.89645
908.45415	0.89067
906.52537	0.88723
904.59659	0.88709
902.66781	0.89060
900.73904	0.89693
898.81026	0.90402
896.88148	0.91002
894.95270	0.91461
893.02393	0.91815
891.09515	0.92065
889.16637	0.92227
887.23759	0.92347
885.30882	0.92448
883.38004	0.92538
881.45126	0.92617
879.52249	0.92672
877.59371	0.92726
875.66493	0.92800
873.73615	0.92871
871.80738	0.92936
869.87860	0.93009
867.94982	0.93067
866.02104	0.93095
864.09227	0.93120
862.16349	0.93159
860.23471	0.93191
858.30593	0.93181
856.37716	0.93094
854.44838	0.92898
852.51960	0.92619
850.59082	0.92340
848.66205	0.92087
846.73327	0.91779
844.80449	0.91365
842.87571	0.90953
840.94694	0.90731
839.01816	0.90818
837.08938	0.91190
835.16061	0.91716
833.23183	0.92246
831.30305	0.92697
829.37427	0.93052
827.44550	0.93316
825.51672	0.93500
823.58794	0.93636
821.65916	0.93738
819.73039	0.93794
817.80161	0.93818
815.87283	0.93839
813.94405	0.93853
812.01528	0.93860
810.08650	0.93890
808.15772	0.93931
806.22894	0.93959
804.30017	0.94016
802.37139	0.94085
800.44261	0.94099
798.51384	0.94068
796.58506	0.94003
794.65628	0.93874
792.72750	0.93720
790.79873	0.93543
788.86995	0.93298
786.94117	0.93014
785.01239	0.92712
783.08362	0.92351
781.15484	0.91866
779.22606	0.91178
777.29728	0.90267
775.36851	0.89135
773.43973	0.87751
771.51095	0.86154
769.58217	0.84452
767.65340	0.82686
765.72462	0.80866
763.79584	0.79029
761.86707	0.77152
759.93829	0.75247
758.00951	0.73554
756.08073	0.72398
754.15196	0.71847
752.22318	0.71706
750.29440	0.71778
748.36562	0.72064
746.43685	0.72817
744.50807	0.74312
742.57929	0.76498
740.65051	0.78993
738.72174	0.81421
736.79296	0.83662
734.86418	0.85786
732.93540	0.87778
731.00663	0.89500
729.07785	0.90846
727.14907	0.91808
725.22029	0.92466
723.29152	0.92954
721.36274	0.93363
719.43396	0.93667
717.50519	0.93800
715.57641	0.93667
713.64763	0.93001
711.71885	0.91430
709.79008	0.88644
707.86130	0.84345
705.93252	0.78384
704.00374	0.70925
702.07497	0.62365
700.14619	0.53144
698.21741	0.44070
696.28863	0.37287
694.35986	0.35988
692.43108	0.41121
690.50230	0.49697
688.57352	0.57877
686.64475	0.63989
684.71597	0.68267
682.78719	0.71328
680.85842	0.73566
678.92964	0.75222
677.00086	0.76453
675.07208	0.77374
673.14331	0.78021
671.21453	0.78400
669.28575	0.78916
667.35697	0.79999
665.42820	0.80794
663.49942	0.81261
661.57064	0.81792
659.64186	0.82414
657.71309	0.83010
655.78431	0.83474
653.85553	0.83867
651.92675	0.84283
649.99798	0.84695
648.06920	0.85077
646.14042	0.85422
644.21164	0.85695
642.28287	0.85857
640.35409	0.85956
638.42531	0.86039
636.49654	0.86114
634.56776	0.86199
632.63898	0.86254
630.71020	0.86199
628.78143	0.86033
626.85265	0.85850
624.92387	0.85741
622.99509	0.85631
621.06632	0.85500
619.13754	0.85585
617.20876	0.85933
615.27998	0.86267
613.35121	0.86484
611.42243	0.86654
609.49365	0.86786
607.56487	0.86925
605.63610	0.87168
603.70732	0.87452
601.77854	0.87569
599.84977	0.87502
597.92099	0.87481
595.99221	0.87647
594.06343	0.87921
592.13466	0.88066
590.20588	0.87922
588.27710	0.87695
586.34832	0.87546
584.41955	0.87407
582.49077	0.87286
580.56199	0.87214
578.63321	0.87003
576.70444	0.86391
574.77566	0.85651
572.84688	0.85213
570.91810	0.84733
568.98933	0.83995
567.06055	0.83476
565.13177	0.83284
563.20299	0.83111
561.27422	0.82689
559.34544	0.81854
557.41666	0.80835
555.48789	0.79936
553.55911	0.79201
551.63033	0.78526
549.70155	0.77712
547.77278	0.76834
545.84400	0.76097
543.91522	0.75187
541.98644	0.73702
540.05767	0.72142
538.12889	0.71512
536.20011	0.72007
534.27133	0.72923
532.34256	0.73924
530.41378	0.75222
528.48500	0.76627
526.55622	0.77822
524.62745	0.78529
522.69867	0.78725
520.76989	0.79460
518.84112	0.81021
516.91234	0.82351
514.98356	0.83712
513.05478	0.85410
511.12601	0.86201
509.19723	0.85090
507.26845	0.82724
505.33967	0.81999
503.41090	0.84258
501.48212	0.86259
499.55334	0.86037
497.62456	0.84575
495.69579	0.83529
493.76701	0.86319
491.83823	0.90782
489.90945	0.94363
487.98068	1.00495
486.05190	1.05608
484.12312	0.97706
482.19434	0.73434
480.26557	0.46797
478.33679	0.30071
476.40801	0.16187
474.47924	0.39893
472.55046	0.65964
470.62168	0.28672
468.69290	-0.18315
466.76413	-0.09729
464.83535	2.49678
462.90657	8.36274
460.97779	2.37634
459.04902	1.24319
457.12024	1.16694
455.19146	1.19309
453.26268	0.73560
451.33391	0.65825
449.40513	1.23210
