3996.42673	0.98831
3994.49795	0.98820
3992.56918	0.98809
3990.64040	0.98808
3988.71162	0.98811
3986.78284	0.98811
3984.85407	0.98772
3982.92529	0.98718
3980.99651	0.98743
3979.06773	0.98829
3977.13896	0.98864
3975.21018	0.98818
3973.28140	0.98765
3971.35262	0.98764
3969.42385	0.98801
3967.49507	0.98823
3965.56629	0.98810
3963.63752	0.98780
3961.70874	0.98757
3959.77996	0.98769
3957.85118	0.98807
3955.92241	0.98812
3953.99363	0.98778
3952.06485	0.98767
3950.13607	0.98808
3948.20730	0.98864
3946.27852	0.98880
3944.34974	0.98864
3942.42096	0.98861
3940.49219	0.98853
3938.56341	0.98809
3936.63463	0.98741
3934.70585	0.98696
3932.77708	0.98745
3930.84830	0.98854
3928.91952	0.98882
3926.99075	0.98839
3925.06197	0.98812
3923.13319	0.98806
3921.20441	0.98805
3919.27564	0.98836
3917.34686	0.98886
3915.41808	0.98902
3913.48930	0.98885
3911.56053	0.98857
3909.63175	0.98819
3907.70297	0.98753
3905.77419	0.98675
3903.84542	0.98676
3901.91664	0.98781
3899.98786	0.98887
3898.05908	0.98939
3896.13031	0.98937
3894.20153	0.98883
3892.27275	0.98842
3890.34397	0.98866
3888.41520	0.98830
3886.48642	0.98758
3884.55764	0.98799
3882.62887	0.98860
3880.70009	0.98874
3878.77131	0.98874
3876.84253	0.98813
3874.91376	0.98746
3872.98498	0.98739
3871.05620	0.98785
3869.12742	0.98871
3867.19865	0.98882
3865.26987	0.98816
3863.34109	0.98792
3861.41231	0.98814
3859.48354	0.98812
3857.55476	0.98754
3855.62598	0.98658
3853.69720	0.98692
3851.76843	0.98897
3849.83965	0.98995
3847.91087	0.98973
3845.98210	0.98875
3844.05332	0.98774
3842.12454	0.98741
3840.19576	0.98744
3838.26699	0.98791
3836.33821	0.98862
3834.40943	0.98841
3832.48065	0.98803
3830.55188	0.98856
3828.62310	0.98902
3826.69432	0.98865
3824.76554	0.98789
3822.83677	0.98741
3820.90799	0.98819
3818.97921	0.98906
3817.05043	0.98884
3815.12166	0.98905
3813.19288	0.98966
3811.26410	0.98961
3809.33533	0.98897
3807.40655	0.98861
3805.47777	0.98885
3803.54899	0.98859
3801.62022	0.98832
3799.69144	0.98865
3797.76266	0.98879
3795.83388	0.98912
3793.90511	0.98939
3791.97633	0.98906
3790.04755	0.98858
3788.11877	0.98838
3786.19000	0.98875
3784.26122	0.98935
3782.33244	0.98904
3780.40366	0.98826
3778.47489	0.98825
3776.54611	0.98856
3774.61733	0.98853
3772.68855	0.98836
3770.75978	0.98837
3768.83100	0.98877
3766.90222	0.98911
3764.97345	0.98906
3763.04467	0.98851
3761.11589	0.98782
3759.18711	0.98801
3757.25834	0.98878
3755.32956	0.98887
3753.40078	0.98841
3751.47200	0.98876
3749.54323	0.99016
3747.61445	0.98999
3745.68567	0.98875
3743.75689	0.98890
3741.82812	0.98951
3739.89934	0.98903
3737.97056	0.98786
3736.04178	0.98676
3734.11301	0.98719
3732.18423	0.98873
3730.25545	0.98955
3728.32668	0.98954
3726.39790	0.98904
3724.46912	0.98837
3722.54034	0.98807
3720.61157	0.98862
3718.68279	0.98958
3716.75401	0.99003
3714.82523	0.98978
3712.89646	0.98944
3710.96768	0.98982
3709.03890	0.99030
3707.11012	0.98999
3705.18135	0.98938
3703.25257	0.98931
3701.32379	0.98984
3699.39501	0.99004
3697.46624	0.98993
3695.53746	0.98977
3693.60868	0.98915
3691.67990	0.98824
3689.75113	0.98833
3687.82235	0.98972
3685.89357	0.99052
3683.96480	0.99029
3682.03602	0.98977
3680.10724	0.98955
3678.17846	0.98923
3676.24969	0.98864
3674.32091	0.98881
3672.39213	0.98910
3670.46335	0.98953
3668.53458	0.99062
3666.60580	0.99104
3664.67702	0.99068
3662.74824	0.99016
3660.81947	0.98965
3658.89069	0.98923
3656.96191	0.98925
3655.03313	0.98923
3653.10436	0.98815
3651.17558	0.98674
3649.24680	0.98698
3647.31803	0.98844
3645.38925	0.98912
3643.46047	0.98942
3641.53169	0.98967
3639.60292	0.98963
3637.67414	0.98922
3635.74536	0.98868
3633.81658	0.98834
3631.88781	0.98821
3629.95903	0.98835
3628.03025	0.98935
3626.10147	0.98983
3624.17270	0.98901
3622.24392	0.98762
3620.31514	0.98664
3618.38636	0.98705
3616.45759	0.98802
3614.52881	0.98824
3612.60003	0.98776
3610.67125	0.98722
3608.74248	0.98724
3606.81370	0.98783
3604.88492	0.98836
3602.95615	0.98843
3601.02737	0.98813
3599.09859	0.98775
3597.16981	0.98775
3595.24104	0.98845
3593.31226	0.98932
3591.38348	0.98972
3589.45470	0.98977
3587.52593	0.99006
3585.59715	0.99074
3583.66837	0.99112
3581.73959	0.99099
3579.81082	0.99077
3577.88204	0.99069
3575.95326	0.99028
3574.02448	0.98972
3572.09571	0.98960
3570.16693	0.98944
3568.23815	0.98922
3566.30938	0.98991
3564.38060	0.99065
3562.45182	0.99055
3560.52304	0.99035
3558.59427	0.99052
3556.66549	0.99053
3554.73671	0.99006
3552.80793	0.98961
3550.87916	0.98951
3548.95038	0.98933
3547.02160	0.98936
3545.09282	0.98994
3543.16405	0.99020
3541.23527	0.99004
3539.30649	0.98991
3537.37771	0.98977
3535.44894	0.98973
3533.52016	0.98979
3531.59138	0.98957
3529.66260	0.98920
3527.73383	0.98892
3525.80505	0.98862
3523.87627	0.98866
3521.94750	0.98918
3520.01872	0.98939
3518.08994	0.98912
3516.16116	0.98895
3514.23239	0.98916
3512.30361	0.98953
3510.37483	0.98988
3508.44605	0.99002
3506.51728	0.98981
3504.58850	0.98955
3502.65972	0.98935
3500.73094	0.98894
3498.80217	0.98867
3496.87339	0.98882
3494.94461	0.98898
3493.01583	0.98889
3491.08706	0.98874
3489.15828	0.98890
3487.22950	0.98942
3485.30073	0.98959
3483.37195	0.98931
3481.44317	0.98941
3479.51439	0.98959
3477.58562	0.98909
3475.65684	0.98842
3473.72806	0.98837
3471.79928	0.98876
3469.87051	0.98920
3467.94173	0.98968
3466.01295	0.99008
3464.08417	0.99017
3462.15540	0.98985
3460.22662	0.98928
3458.29784	0.98895
3456.36906	0.98911
3454.44029	0.98938
3452.51151	0.98915
3450.58273	0.98853
3448.65396	0.98833
3446.72518	0.98875
3444.79640	0.98908
3442.86762	0.98915
3440.93885	0.98935
3439.01007	0.98976
3437.08129	0.99008
3435.15251	0.98975
3433.22374	0.98882
3431.29496	0.98826
3429.36618	0.98825
3427.43740	0.98808
3425.50863	0.98794
3423.57985	0.98828
3421.65107	0.98862
3419.72229	0.98845
3417.79352	0.98813
3415.86474	0.98829
3413.93596	0.98876
3412.00718	0.98903
3410.07841	0.98904
3408.14963	0.98900
3406.22085	0.98882
3404.29208	0.98856
3402.36330	0.98873
3400.43452	0.98915
3398.50574	0.98900
3396.57697	0.98846
3394.64819	0.98829
3392.71941	0.98855
3390.79063	0.98866
3388.86186	0.98854
3386.93308	0.98845
3385.00430	0.98834
3383.07552	0.98837
3381.14675	0.98857
3379.21797	0.98862
3377.28919	0.98851
3375.36041	0.98844
3373.43164	0.98851
3371.50286	0.98878
3369.57408	0.98925
3367.64531	0.98965
3365.71653	0.98961
3363.78775	0.98916
3361.85897	0.98856
3359.93020	0.98823
3358.00142	0.98848
3356.07264	0.98876
3354.14386	0.98851
3352.21509	0.98826
3350.28631	0.98860
3348.35753	0.98936
3346.42875	0.98990
3344.49998	0.98977
3342.57120	0.98929
3340.64242	0.98892
3338.71364	0.98872
3336.78487	0.98876
3334.85609	0.98908
3332.92731	0.98921
3330.99853	0.98890
3329.06976	0.98866
3327.14098	0.98880
3325.21220	0.98905
3323.28343	0.98925
3321.35465	0.98936
3319.42587	0.98941
3317.49709	0.98942
3315.56832	0.98942
3313.63954	0.98943
3311.71076	0.98939
3309.78198	0.98920
3307.85321	0.98915
3305.92443	0.98941
3303.99565	0.98957
3302.06687	0.98940
3300.13810	0.98930
3298.20932	0.98945
3296.28054	0.98950
3294.35176	0.98942
3292.42299	0.98955
3290.49421	0.98979
3288.56543	0.98974
3286.63666	0.98947
3284.70788	0.98925
3282.77910	0.98913
3280.85032	0.98919
3278.92155	0.98946
3276.99277	0.98963
3275.06399	0.98972
3273.13521	0.98966
3271.20644	0.98930
3269.27766	0.98913
3267.34888	0.98942
3265.42010	0.98948
3263.49133	0.98921
3261.56255	0.98924
3259.63377	0.98947
3257.70499	0.98948
3255.77622	0.98950
3253.84744	0.98970
3251.91866	0.98982
3249.98988	0.98956
3248.06111	0.98902
3246.13233	0.98889
3244.20355	0.98929
3242.27478	0.98949
3240.34600	0.98926
3238.41722	0.98911
3236.48844	0.98945
3234.55967	0.99008
3232.63089	0.99039
3230.70211	0.99009
3228.77333	0.98961
3226.84456	0.98947
3224.91578	0.98952
3222.98700	0.98963
3221.05822	0.98984
3219.12945	0.98998
3217.20067	0.98981
3215.27189	0.98960
3213.34311	0.98974
3211.41434	0.99000
3209.48556	0.99006
3207.55678	0.98995
3205.62801	0.98980
3203.69923	0.98962
3201.77045	0.98947
3199.84167	0.98939
3197.91290	0.98933
3195.98412	0.98945
3194.05534	0.98965
3192.12656	0.98954
3190.19779	0.98925
3188.26901	0.98939
3186.34023	0.98992
3184.41145	0.99027
3182.48268	0.99009
3180.55390	0.98981
3178.62512	0.98982
3176.69634	0.98975
3174.76757	0.98946
3172.83879	0.98936
3170.91001	0.98944
3168.98123	0.98952
3167.05246	0.98981
3165.12368	0.99024
3163.19490	0.99044
3161.26613	0.99036
3159.33735	0.99018
3157.40857	0.98985
3155.47979	0.98940
3153.55102	0.98913
3151.62224	0.98924
3149.69346	0.98947
3147.76468	0.98954
3145.83591	0.98949
3143.90713	0.98946
3141.97835	0.98956
3140.04957	0.98966
3138.12080	0.98955
3136.19202	0.98939
3134.26324	0.98947
3132.33446	0.98970
3130.40569	0.98959
3128.47691	0.98908
3126.54813	0.98903
3124.61936	0.98957
3122.69058	0.98985
3120.76180	0.98971
3118.83302	0.98958
3116.90425	0.98947
3114.97547	0.98928
3113.04669	0.98913
3111.11791	0.98900
3109.18914	0.98874
3107.26036	0.98860
3105.33158	0.98864
3103.40280	0.98860
3101.47403	0.98847
3099.54525	0.98830
3097.61647	0.98805
3095.68769	0.98787
3093.75892	0.98779
3091.83014	0.98755
3089.90136	0.98718
3087.97258	0.98679
3086.04381	0.98657
3084.11503	0.98668
3082.18625	0.98682
3080.25748	0.98676
3078.32870	0.98676
3076.39992	0.98690
3074.47114	0.98678
3072.54237	0.98646
3070.61359	0.98620
3068.68481	0.98593
3066.75603	0.98568
3064.82726	0.98559
3062.89848	0.98554
3060.96970	0.98541
3059.04092	0.98517
3057.11215	0.98495
3055.18337	0.98500
3053.25459	0.98515
3051.32581	0.98510
3049.39704	0.98490
3047.46826	0.98465
3045.53948	0.98424
3043.61071	0.98372
3041.68193	0.98330
3039.75315	0.98319
3037.82437	0.98326
3035.89560	0.98322
3033.96682	0.98296
3032.03804	0.98268
3030.10926	0.98260
3028.18049	0.98257
3026.25171	0.98234
3024.32293	0.98212
3022.39415	0.98203
3020.46538	0.98189
3018.53660	0.98172
3016.60782	0.98166
3014.67904	0.98167
3012.75027	0.98155
3010.82149	0.98124
3008.89271	0.98096
3006.96394	0.98072
3005.03516	0.98038
3003.10638	0.97995
3001.17760	0.97970
2999.24883	0.97972
2997.32005	0.97956
2995.39127	0.97898
2993.46249	0.97846
2991.53372	0.97820
2989.60494	0.97792
2987.67616	0.97744
2985.74738	0.97692
2983.81861	0.97638
2981.88983	0.97550
2979.96105	0.97438
2978.03227	0.97349
2976.10350	0.97250
2974.17472	0.97100
2972.24594	0.96926
2970.31716	0.96746
2968.38839	0.96554
2966.45961	0.96347
2964.53083	0.96107
2962.60206	0.95831
2960.67328	0.95531
2958.74450	0.95211
2956.81572	0.94860
2954.88695	0.94443
2952.95817	0.93930
2951.02939	0.93307
2949.10061	0.92552
2947.17184	0.91618
2945.24306	0.90453
2943.31428	0.89023
2941.38550	0.87306
2939.45673	0.85287
2937.52795	0.82960
2935.59917	0.80320
2933.67039	0.77347
2931.74162	0.73987
2929.81284	0.70187
2927.88406	0.65930
2925.95529	0.61188
2924.02651	0.55920
2922.09773	0.50211
2920.16895	0.44415
2918.24018	0.39219
2916.31140	0.35639
2914.38262	0.34576
2912.45384	0.36115
2910.52507	0.39428
2908.59629	0.43426
2906.66751	0.47324
2904.73873	0.50744
2902.80996	0.53606
2900.88118	0.56001
2898.95240	0.58074
2897.02362	0.59971
2895.09485	0.61822
2893.16607	0.63708
2891.23729	0.65659
2889.30851	0.67664
2887.37974	0.69704
2885.45096	0.71786
2883.52218	0.73899
2881.59341	0.76002
2879.66463	0.78065
2877.73585	0.80048
2875.80707	0.81840
2873.87830	0.83296
2871.94952	0.84316
2870.02074	0.84879
2868.09196	0.84969
2866.16319	0.84531
2864.23441	0.83445
2862.30563	0.81516
2860.37685	0.78524
2858.44808	0.74253
2856.51930	0.68443
2854.59052	0.60892
2852.66174	0.51922
2850.73297	0.43169
2848.80419	0.37627
2846.87541	0.37592
2844.94664	0.42531
2843.01786	0.49950
2841.08908	0.57599
2839.16030	0.64291
2837.23153	0.69675
2835.30275	0.73892
2833.37397	0.77190
2831.44519	0.79767
2829.51642	0.81815
2827.58764	0.83493
2825.65886	0.84885
2823.73008	0.86059
2821.80131	0.87065
2819.87253	0.87921
2817.94375	0.88645
2816.01497	0.89268
2814.08620	0.89819
2812.15742	0.90321
2810.22864	0.90788
2808.29986	0.91214
2806.37109	0.91587
2804.44231	0.91923
2802.51353	0.92247
2800.58476	0.92552
2798.65598	0.92817
2796.72720	0.93048
2794.79842	0.93278
2792.86965	0.93515
2790.94087	0.93733
2789.01209	0.93937
2787.08331	0.94158
2785.15454	0.94381
2783.22576	0.94583
2781.29698	0.94766
2779.36820	0.94931
2777.43943	0.95077
2775.51065	0.95213
2773.58187	0.95350
2771.65309	0.95479
2769.72432	0.95586
2767.79554	0.95680
2765.86676	0.95766
2763.93799	0.95848
2762.00921	0.95934
2760.08043	0.96022
2758.15165	0.96099
2756.22288	0.96157
2754.29410	0.96210
2752.36532	0.96263
2750.43654	0.96308
2748.50777	0.96344
2746.57899	0.96376
2744.65021	0.96399
2742.72143	0.96408
2740.79266	0.96423
2738.86388	0.96461
2736.93510	0.96508
2735.00632	0.96549
2733.07755	0.96584
2731.14877	0.96622
2729.21999	0.96666
2727.29121	0.96716
2725.36244	0.96783
2723.43366	0.96854
2721.50488	0.96900
2719.57611	0.96915
2717.64733	0.96911
2715.71855	0.96918
2713.78977	0.96954
2711.86100	0.97006
2709.93222	0.97046
2708.00344	0.97067
2706.07466	0.97094
2704.14589	0.97137
2702.21711	0.97175
2700.28833	0.97203
2698.35955	0.97228
2696.43078	0.97243
2694.50200	0.97242
2692.57322	0.97241
2690.64444	0.97256
2688.71567	0.97268
2686.78689	0.97262
2684.85811	0.97258
2682.92934	0.97269
2681.00056	0.97277
2679.07178	0.97258
2677.14300	0.97214
2675.21423	0.97167
2673.28545	0.97138
2671.35667	0.97136
2669.42789	0.97152
2667.49912	0.97155
2665.57034	0.97137
2663.64156	0.97100
2661.71278	0.97056
2659.78401	0.97025
2657.85523	0.97023
2655.92645	0.97041
2653.99767	0.97061
2652.06890	0.97068
2650.14012	0.97065
2648.21134	0.97076
2646.28257	0.97099
2644.35379	0.97112
2642.42501	0.97112
2640.49623	0.97099
2638.56746	0.97089
2636.63868	0.97091
2634.70990	0.97091
2632.78112	0.97105
2630.85235	0.97159
2628.92357	0.97234
2626.99479	0.97301
2625.06601	0.97348
2623.13724	0.97384
2621.20846	0.97426
2619.27968	0.97469
2617.35090	0.97502
2615.42213	0.97534
2613.49335	0.97571
2611.56457	0.97607
2609.63579	0.97641
2607.70702	0.97686
2605.77824	0.97739
2603.84946	0.97788
2601.92069	0.97832
2599.99191	0.97867
2598.06313	0.97878
2596.13435	0.97879
2594.20558	0.97904
2592.27680	0.97935
2590.34802	0.97948
2588.41924	0.97953
2586.49047	0.97980
2584.56169	0.98055
2582.63291	0.98151
2580.70413	0.98211
2578.77536	0.98232
2576.84658	0.98236
2574.91780	0.98257
2572.98902	0.98323
2571.06025	0.98379
2569.13147	0.98372
2567.20269	0.98345
2565.27392	0.98349
2563.34514	0.98371
2561.41636	0.98386
2559.48758	0.98368
2557.55881	0.98334
2555.63003	0.98331
2553.70125	0.98357
2551.77247	0.98384
2549.84370	0.98403
2547.91492	0.98425
2545.98614	0.98456
2544.05736	0.98482
2542.12859	0.98487
2540.19981	0.98483
2538.27103	0.98506
2536.34225	0.98549
2534.41348	0.98559
2532.48470	0.98542
2530.55592	0.98525
2528.62714	0.98515
2526.69837	0.98518
2524.76959	0.98523
2522.84081	0.98506
2520.91204	0.98497
2518.98326	0.98531
2517.05448	0.98577
2515.12570	0.98605
2513.19693	0.98624
2511.26815	0.98637
2509.33937	0.98633
2507.41059	0.98614
2505.48182	0.98601
2503.55304	0.98611
2501.62426	0.98623
2499.69548	0.98613
2497.76671	0.98600
2495.83793	0.98616
2493.90915	0.98651
2491.98037	0.98664
2490.05160	0.98655
2488.12282	0.98657
2486.19404	0.98675
2484.26527	0.98703
2482.33649	0.98738
2480.40771	0.98765
2478.47893	0.98756
2476.55016	0.98707
2474.62138	0.98659
2472.69260	0.98654
2470.76382	0.98674
2468.83505	0.98681
2466.90627	0.98677
2464.97749	0.98681
2463.04871	0.98720
2461.11994	0.98786
2459.19116	0.98806
2457.26238	0.98753
2455.33360	0.98711
2453.40483	0.98725
2451.47605	0.98752
2449.54727	0.98761
2447.61849	0.98749
2445.68972	0.98723
2443.76094	0.98715
2441.83216	0.98741
2439.90339	0.98776
2437.97461	0.98782
2436.04583	0.98770
2434.11705	0.98770
2432.18828	0.98774
2430.25950	0.98777
2428.33072	0.98799
2426.40194	0.98828
2424.47317	0.98834
2422.54439	0.98819
2420.61561	0.98814
2418.68683	0.98821
2416.75806	0.98798
2414.82928	0.98755
2412.90050	0.98752
2410.97172	0.98783
2409.04295	0.98799
2407.11417	0.98804
2405.18539	0.98824
2403.25662	0.98858
2401.32784	0.98888
2399.39906	0.98897
2397.47028	0.98879
2395.54151	0.98836
2393.61273	0.98792
2391.68395	0.98790
2389.75517	0.98828
2387.82640	0.98855
2385.89762	0.98839
2383.96884	0.98788
2382.04006	0.98709
2380.11129	0.98622
2378.18251	0.98575
2376.25373	0.98570
2374.32495	0.98545
2372.39618	0.98471
2370.46740	0.98390
2368.53862	0.98345
2366.60984	0.98273
2364.68107	0.98136
2362.75229	0.98017
2360.82351	0.97998
2358.89474	0.98065
2356.96596	0.98112
2355.03718	0.98130
2353.10840	0.98181
2351.17963	0.98202
2349.25085	0.98132
2347.32207	0.98014
2345.39329	0.97934
2343.46452	0.97954
2341.53574	0.98002
2339.60696	0.97969
2337.67818	0.97911
2335.74941	0.97907
2333.82063	0.97926
2331.89185	0.97970
2329.96307	0.98014
2328.03430	0.97957
2326.10552	0.97814
2324.17674	0.97717
2322.24797	0.97745
2320.31919	0.97858
2318.39041	0.97976
2316.46163	0.98049
2314.53286	0.98097
2312.60408	0.98147
2310.67530	0.98187
2308.74652	0.98237
2306.81775	0.98315
2304.88897	0.98371
2302.96019	0.98381
2301.03141	0.98372
2299.10264	0.98374
2297.17386	0.98399
2295.24508	0.98419
2293.31630	0.98396
2291.38753	0.98340
2289.45875	0.98279
2287.52997	0.98254
2285.60120	0.98300
2283.67242	0.98366
2281.74364	0.98379
2279.81486	0.98401
2277.88609	0.98497
2275.95731	0.98572
2274.02853	0.98562
2272.09975	0.98546
2270.17098	0.98580
2268.24220	0.98635
2266.31342	0.98687
2264.38464	0.98700
2262.45587	0.98652
2260.52709	0.98610
2258.59831	0.98631
2256.66953	0.98678
2254.74076	0.98702
2252.81198	0.98722
2250.88320	0.98758
2248.95442	0.98760
2247.02565	0.98707
2245.09687	0.98676
2243.16809	0.98715
2241.23932	0.98767
2239.31054	0.98773
2237.38176	0.98760
2235.45298	0.98745
2233.52421	0.98730
2231.59543	0.98745
2229.66665	0.98782
2227.73787	0.98774
2225.80910	0.98712
2223.88032	0.98683
2221.95154	0.98730
2220.02276	0.98808
2218.09399	0.98860
2216.16521	0.98855
2214.23643	0.98833
2212.30765	0.98836
2210.37888	0.98829
2208.45010	0.98803
2206.52132	0.98790
2204.59255	0.98788
2202.66377	0.98787
2200.73499	0.98780
2198.80621	0.98748
2196.87744	0.98728
2194.94866	0.98713
2193.01988	0.98625
2191.09110	0.98514
2189.16233	0.98519
2187.23355	0.98658
2185.30477	0.98830
2183.37599	0.98969
2181.44722	0.99019
2179.51844	0.98948
2177.58966	0.98894
2175.66088	0.98918
2173.73211	0.98869
2171.80333	0.98727
2169.87455	0.98591
2167.94577	0.98474
2166.01700	0.98375
2164.08822	0.98328
2162.15944	0.98393
2160.23067	0.98760
2158.30189	0.99343
2156.37311	0.99632
2154.44433	0.99563
2152.51556	0.99416
2150.58678	0.99306
2148.65800	0.99309
2146.72922	0.99401
2144.80045	0.99404
2142.87167	0.99337
2140.94289	0.99354
2139.01411	0.99445
2137.08534	0.99521
2135.15656	0.99525
2133.22778	0.99463
2131.29900	0.99412
2129.37023	0.99373
2127.44145	0.99301
2125.51267	0.99240
2123.58390	0.99217
2121.65512	0.99177
2119.72634	0.99115
2117.79756	0.99086
2115.86879	0.99085
2113.94001	0.99044
2112.01123	0.98968
2110.08245	0.98928
2108.15368	0.98922
2106.22490	0.98926
2104.29612	0.98950
2102.36734	0.98960
2100.43857	0.98927
2098.50979	0.98918
2096.58101	0.98981
2094.65223	0.99051
2092.72346	0.99053
2090.79468	0.99039
2088.86590	0.99067
2086.93712	0.99063
2085.00835	0.98977
2083.07957	0.98879
2081.15079	0.98841
2079.22202	0.98861
2077.29324	0.98870
2075.36446	0.98841
2073.43568	0.98847
2071.50691	0.98880
2069.57813	0.98880
2067.64935	0.98895
2065.72057	0.98948
2063.79180	0.98984
2061.86302	0.98979
2059.93424	0.98927
2058.00546	0.98850
2056.07669	0.98816
2054.14791	0.98780
2052.21913	0.98662
2050.29035	0.98616
2048.36158	0.98714
2046.43280	0.98790
2044.50402	0.98812
2042.57525	0.98828
2040.64647	0.98819
2038.71769	0.98776
2036.78891	0.98741
2034.86014	0.98756
2032.93136	0.98813
2031.00258	0.98919
2029.07380	0.99027
2027.14503	0.99025
2025.21625	0.98955
2023.28747	0.98926
2021.35869	0.98924
2019.42992	0.98898
2017.50114	0.98880
2015.57236	0.98877
2013.64358	0.98854
2011.71481	0.98880
2009.78603	0.99045
2007.85725	0.99289
2005.92847	0.99446
2003.99970	0.99438
2002.07092	0.99326
2000.14214	0.99177
1998.21337	0.99045
1996.28459	0.98966
1994.35581	0.98925
1992.42703	0.98910
1990.49826	0.98925
1988.56948	0.98939
1986.64070	0.98908
1984.71192	0.98784
1982.78315	0.98610
1980.85437	0.98569
1978.92559	0.98781
1976.99681	0.99121
1975.06804	0.99331
1973.13926	0.99294
1971.21048	0.99153
1969.28170	0.99085
1967.35293	0.99100
1965.42415	0.99138
1963.49537	0.99178
1961.56660	0.99257
1959.63782	0.99341
1957.70904	0.99330
1955.78026	0.99246
1953.85149	0.99190
1951.92271	0.99184
1949.99393	0.99195
1948.06515	0.99204
1946.13638	0.99216
1944.20760	0.99241
1942.27882	0.99270
1940.35004	0.99285
1938.42127	0.99257
1936.49249	0.99197
1934.56371	0.99178
1932.63493	0.99198
1930.70616	0.99198
1928.77738	0.99181
1926.84860	0.99168
1924.91983	0.99152
1922.99105	0.99116
1921.06227	0.99050
1919.13349	0.98981
1917.20472	0.98966
1915.27594	0.99002
1913.34716	0.99033
1911.41838	0.99035
1909.48961	0.99021
1907.56083	0.99008
1905.63205	0.99000
1903.70327	0.99003
1901.77450	0.99004
1899.84572	0.98977
1897.91694	0.98946
1895.98816	0.98934
1894.05939	0.98940
1892.13061	0.98939
1890.20183	0.98946
1888.27305	0.99009
1886.34428	0.99093
1884.41550	0.99139
1882.48672	0.99152
1880.55795	0.99147
1878.62917	0.99116
1876.70039	0.99085
1874.77161	0.99078
1872.84284	0.99045
1870.91406	0.98989
1868.98528	0.99002
1867.05650	0.99059
1865.12773	0.99065
1863.19895	0.99051
1861.27017	0.99052
1859.34139	0.99056
1857.41262	0.99067
1855.48384	0.99083
1853.55506	0.99087
1851.62628	0.99077
1849.69751	0.99062
1847.76873	0.99062
1845.83995	0.99084
1843.91118	0.99111
1841.98240	0.99111
1840.05362	0.99087
1838.12484	0.99056
1836.19607	0.99032
1834.26729	0.99017
1832.33851	0.99002
1830.40973	0.98990
1828.48096	0.98980
1826.55218	0.98956
1824.62340	0.98930
1822.69462	0.98924
1820.76585	0.98940
1818.83707	0.98976
1816.90829	0.99009
1814.97951	0.99001
1813.05074	0.98957
1811.12196	0.98914
1809.19318	0.98888
1807.26440	0.98865
1805.33563	0.98847
1803.40685	0.98834
1801.47807	0.98830
1799.54930	0.98834
1797.62052	0.98820
1795.69174	0.98775
1793.76296	0.98733
1791.83419	0.98750
1789.90541	0.98789
1787.97663	0.98793
1786.04785	0.98780
1784.11908	0.98760
1782.19030	0.98732
1780.26152	0.98715
1778.33274	0.98693
1776.40397	0.98647
1774.47519	0.98596
1772.54641	0.98581
1770.61763	0.98609
1768.68886	0.98616
1766.76008	0.98590
1764.83130	0.98549
1762.90253	0.98510
1760.97375	0.98492
1759.04497	0.98478
1757.11619	0.98461
1755.18742	0.98441
1753.25864	0.98385
1751.32986	0.98298
1749.40108	0.98214
1747.47231	0.98120
1745.54353	0.97994
1743.61475	0.97839
1741.68597	0.97670
1739.75720	0.97491
1737.82842	0.97310
1735.89964	0.97131
1733.97086	0.96978
1732.04209	0.96881
1730.11331	0.96772
1728.18453	0.96621
1726.25575	0.96432
1724.32698	0.96216
1722.39820	0.95993
1720.46942	0.95786
1718.54065	0.95624
1716.61187	0.95586
1714.68309	0.95684
1712.75431	0.95839
1710.82554	0.96035
1708.89676	0.96251
1706.96798	0.96499
1705.03920	0.96761
1703.11043	0.96909
1701.18165	0.97011
1699.25287	0.97224
1697.32409	0.97454
1695.39532	0.97669
1693.46654	0.97804
1691.53776	0.97844
1689.60898	0.97888
1687.68021	0.97934
1685.75143	0.97961
1683.82265	0.98056
1681.89388	0.98162
1679.96510	0.98189
1678.03632	0.98185
1676.10754	0.98193
1674.17877	0.98224
1672.24999	0.98237
1670.32121	0.98248
1668.39243	0.98302
1666.46366	0.98330
1664.53488	0.98319
1662.60610	0.98326
1660.67732	0.98346
1658.74855	0.98335
1656.81977	0.98292
1654.89099	0.98251
1652.96221	0.98318
1651.03344	0.98369
1649.10466	0.98307
1647.17588	0.98265
1645.24710	0.98310
1643.31833	0.98331
1641.38955	0.98295
1639.46077	0.98232
1637.53200	0.98187
1635.60322	0.98219
1633.67444	0.98248
1631.74566	0.98210
1629.81689	0.98170
1627.88811	0.98166
1625.95933	0.98174
1624.03055	0.98187
1622.10178	0.98214
1620.17300	0.98210
1618.24422	0.98191
1616.31544	0.98214
1614.38667	0.98240
1612.45789	0.98227
1610.52911	0.98203
1608.60033	0.98196
1606.67156	0.98201
1604.74278	0.98201
1602.81400	0.98203
1600.88523	0.98218
1598.95645	0.98229
1597.02767	0.98232
1595.09889	0.98227
1593.17012	0.98214
1591.24134	0.98211
1589.31256	0.98219
1587.38378	0.98212
1585.45501	0.98186
1583.52623	0.98162
1581.59745	0.98149
1579.66867	0.98124
1577.73990	0.98098
1575.81112	0.98141
1573.88234	0.98200
1571.95356	0.98199
1570.02479	0.98206
1568.09601	0.98249
1566.16723	0.98262
1564.23845	0.98243
1562.30968	0.98198
1560.38090	0.98145
1558.45212	0.98188
1556.52335	0.98247
1554.59457	0.98238
1552.66579	0.98215
1550.73701	0.98204
1548.80824	0.98202
1546.87946	0.98173
1544.95068	0.98111
1543.02190	0.98056
1541.09313	0.98098
1539.16435	0.98222
1537.23557	0.98229
1535.30679	0.98173
1533.37802	0.98157
1531.44924	0.98162
1529.52046	0.98133
1527.59168	0.98100
1525.66291	0.98082
1523.73413	0.98066
1521.80535	0.98057
1519.87658	0.98050
1517.94780	0.98022
1516.01902	0.97998
1514.09024	0.97963
1512.16147	0.97887
1510.23269	0.97784
1508.30391	0.97674
1506.37513	0.97646
1504.44636	0.97644
1502.51758	0.97589
1500.58880	0.97521
1498.66002	0.97452
1496.73125	0.97380
1494.80247	0.97289
1492.87369	0.97178
1490.94491	0.97041
1489.01614	0.96897
1487.08736	0.96729
1485.15858	0.96481
1483.22981	0.96096
1481.30103	0.95411
1479.37225	0.94061
1477.44347	0.90879
1475.51470	0.84360
1473.58592	0.75579
1471.65714	0.70787
1469.72836	0.71623
1467.79959	0.73471
1465.87081	0.74327
1463.94203	0.74175
1462.01325	0.74882
1460.08448	0.77532
1458.15570	0.82113
1456.22692	0.86648
1454.29814	0.88662
1452.36937	0.89708
1450.44059	0.90590
1448.51181	0.91314
1446.58303	0.91828
1444.65426	0.92121
1442.72548	0.92297
1440.79670	0.92445
1438.86793	0.92601
1436.93915	0.92927
1435.01037	0.93378
1433.08159	0.93725
1431.15282	0.94084
1429.22404	0.94537
1427.29526	0.94937
1425.36648	0.95254
1423.43771	0.95532
1421.50893	0.95712
1419.58015	0.95842
1417.65137	0.95964
1415.72260	0.95981
1413.79382	0.95934
1411.86504	0.95901
1409.93626	0.95930
1408.00749	0.96018
1406.07871	0.96168
1404.14993	0.96365
1402.22116	0.96513
1400.29238	0.96607
1398.36360	0.96703
1396.43482	0.96809
1394.50605	0.96912
1392.57727	0.96983
1390.64849	0.97000
1388.71971	0.97000
1386.79094	0.97019
1384.86216	0.97019
1382.93338	0.96963
1381.00460	0.96849
1379.07583	0.96685
1377.14705	0.96499
1375.21827	0.96302
1373.28949	0.96080
1371.36072	0.95867
1369.43194	0.95733
1367.50316	0.95715
1365.57438	0.95795
1363.64561	0.95955
1361.71683	0.96154
1359.78805	0.96295
1357.85928	0.96352
1355.93050	0.96348
1354.00172	0.96309
1352.07294	0.96278
1350.14417	0.96289
1348.21539	0.96331
1346.28661	0.96360
1344.35783	0.96368
1342.42906	0.96383
1340.50028	0.96450
1338.57150	0.96599
1336.64272	0.96787
1334.71395	0.96955
1332.78517	0.97082
1330.85639	0.97164
1328.92761	0.97199
1326.99884	0.97184
1325.07006	0.97141
1323.14128	0.97090
1321.21251	0.97030
1319.28373	0.96951
1317.35495	0.96854
1315.42617	0.96743
1313.49740	0.96632
1311.56862	0.96525
1309.63984	0.96422
1307.71106	0.96336
1305.78229	0.96275
1303.85351	0.96217
1301.92473	0.96150
1299.99595	0.96086
1298.06718	0.96043
1296.13840	0.96016
1294.20962	0.95992
1292.28084	0.95969
1290.35207	0.95951
1288.42329	0.95940
1286.49451	0.95935
1284.56573	0.95925
1282.63696	0.95905
1280.70818	0.95876
1278.77940	0.95843
1276.85063	0.95803
1274.92185	0.95757
1272.99307	0.95705
1271.06429	0.95642
1269.13552	0.95569
1267.20674	0.95493
1265.27796	0.95419
1263.34918	0.95360
1261.42041	0.95335
1259.49163	0.95361
1257.56285	0.95410
1255.63407	0.95438
1253.70530	0.95443
1251.77652	0.95441
1249.84774	0.95438
1247.91896	0.95449
1245.99019	0.95485
1244.06141	0.95541
1242.13263	0.95610
1240.20386	0.95701
1238.27508	0.95824
1236.34630	0.95975
1234.41752	0.96131
1232.48875	0.96274
1230.55997	0.96397
1228.63119	0.96503
1226.70241	0.96601
1224.77364	0.96689
1222.84486	0.96765
1220.91608	0.96840
1218.98730	0.96924
1217.05853	0.97006
1215.12975	0.97078
1213.20097	0.97132
1211.27219	0.97168
1209.34342	0.97207
1207.41464	0.97249
1205.48586	0.97273
1203.55708	0.97294
1201.62831	0.97326
1199.69953	0.97360
1197.77075	0.97389
1195.84198	0.97413
1193.91320	0.97422
1191.98442	0.97423
1190.05564	0.97429
1188.12687	0.97436
1186.19809	0.97435
1184.26931	0.97433
1182.34053	0.97422
1180.41176	0.97390
1178.48298	0.97346
1176.55420	0.97312
1174.62542	0.97307
1172.69665	0.97326
1170.76787	0.97350
1168.83909	0.97375
1166.91031	0.97407
1164.98154	0.97434
1163.05276	0.97441
1161.12398	0.97430
1159.19521	0.97421
1157.26643	0.97417
1155.33765	0.97409
1153.40887	0.97389
1151.48010	0.97356
1149.55132	0.97318
1147.62254	0.97283
1145.69376	0.97232
1143.76499	0.97155
1141.83621	0.97079
1139.90743	0.97007
1137.97865	0.96909
1136.04988	0.96785
1134.12110	0.96653
1132.19232	0.96515
1130.26354	0.96390
1128.33477	0.96300
1126.40599	0.96237
1124.47721	0.96183
1122.54844	0.96138
1120.61966	0.96110
1118.69088	0.96104
1116.76210	0.96115
1114.83333	0.96128
1112.90455	0.96115
1110.97577	0.96064
1109.04699	0.95996
1107.11822	0.95926
1105.18944	0.95856
1103.26066	0.95789
1101.33188	0.95733
1099.40311	0.95695
1097.47433	0.95679
1095.54555	0.95687
1093.61677	0.95731
1091.68800	0.95809
1089.75922	0.95901
1087.83044	0.95983
1085.90166	0.96045
1083.97289	0.96104
1082.04411	0.96169
1080.11533	0.96242
1078.18656	0.96342
1076.25778	0.96458
1074.32900	0.96553
1072.40022	0.96635
1070.47145	0.96720
1068.54267	0.96804
1066.61389	0.96882
1064.68511	0.96929
1062.75634	0.96945
1060.82756	0.96958
1058.89878	0.96996
1056.97000	0.97051
1055.04123	0.97090
1053.11245	0.97105
1051.18367	0.97118
1049.25489	0.97141
1047.32612	0.97161
1045.39734	0.97168
1043.46856	0.97171
1041.53979	0.97182
1039.61101	0.97193
1037.68223	0.97192
1035.75345	0.97180
1033.82468	0.97177
1031.89590	0.97198
1029.96712	0.97228
1028.03834	0.97215
1026.10957	0.97120
1024.18079	0.96968
1022.25201	0.96829
1020.32323	0.96737
1018.39446	0.96706
1016.46568	0.96768
1014.53690	0.96919
1012.60812	0.97095
1010.67935	0.97243
1008.75057	0.97356
1006.82179	0.97441
1004.89301	0.97498
1002.96424	0.97534
1001.03546	0.97565
999.10668	0.97593
997.17791	0.97606
995.24913	0.97605
993.32035	0.97607
991.39157	0.97606
989.46280	0.97587
987.53402	0.97574
985.60524	0.97568
983.67646	0.97556
981.74769	0.97551
979.81891	0.97540
977.89013	0.97492
975.96135	0.97417
974.03258	0.97337
972.10380	0.97253
970.17502	0.97147
968.24624	0.97021
966.31747	0.96933
964.38869	0.96952
962.45991	0.97086
960.53114	0.97281
958.60236	0.97459
956.67358	0.97569
954.74480	0.97623
952.81603	0.97652
950.88725	0.97665
948.95847	0.97667
947.02969	0.97677
945.10092	0.97696
943.17214	0.97707
941.24336	0.97717
939.31458	0.97731
937.38581	0.97748
935.45703	0.97762
933.52825	0.97771
931.59947	0.97795
929.67070	0.97824
927.74192	0.97829
925.81314	0.97803
923.88436	0.97765
921.95559	0.97754
920.02681	0.97781
918.09803	0.97806
916.16926	0.97802
914.24048	0.97773
912.31170	0.97724
910.38292	0.97674
908.45415	0.97664
906.52537	0.97686
904.59659	0.97688
902.66781	0.97669
900.73904	0.97669
898.81026	0.97685
896.88148	0.97679
894.95270	0.97647
893.02393	0.97609
891.09515	0.97542
889.16637	0.97452
887.23759	0.97375
885.30882	0.97285
883.38004	0.97151
881.45126	0.96990
879.52249	0.96818
877.59371	0.96667
875.66493	0.96570
873.73615	0.96554
871.80738	0.96669
869.87860	0.96900
867.94982	0.97119
866.02104	0.97249
864.09227	0.97313
862.16349	0.97334
860.23471	0.97324
858.30593	0.97307
856.37716	0.97288
854.44838	0.97252
852.51960	0.97236
850.59082	0.97250
848.66205	0.97264
846.73327	0.97285
844.80449	0.97314
842.87571	0.97333
840.94694	0.97335
839.01816	0.97314
837.08938	0.97289
835.16061	0.97294
833.23183	0.97306
831.30305	0.97292
829.37427	0.97268
827.44550	0.97253
825.51672	0.97235
823.58794	0.97210
821.65916	0.97161
819.73039	0.97100
817.80161	0.97064
815.87283	0.97043
813.94405	0.97019
812.01528	0.96986
810.08650	0.96931
808.15772	0.96864
806.22894	0.96806
804.30017	0.96773
802.37139	0.96761
800.44261	0.96741
798.51384	0.96682
796.58506	0.96603
794.65628	0.96581
792.72750	0.96631
790.79873	0.96680
788.86995	0.96704
786.94117	0.96720
785.01239	0.96712
783.08362	0.96671
781.15484	0.96616
779.22606	0.96545
777.29728	0.96462
775.36851	0.96391
773.43973	0.96337
771.51095	0.96283
769.58217	0.96188
767.65340	0.96034
765.72462	0.95869
763.79584	0.95743
761.86707	0.95662
759.93829	0.95583
758.00951	0.95446
756.08073	0.95268
754.15196	0.95110
752.22318	0.94956
750.29440	0.94753
748.36562	0.94511
746.43685	0.94255
744.50807	0.93992
742.57929	0.93686
740.65051	0.93229
738.72174	0.92481
736.79296	0.91189
734.86418	0.88648
732.93540	0.84625
731.00663	0.81148
729.07785	0.80424
727.14907	0.81225
725.22029	0.80823
723.29152	0.77993
721.36274	0.72829
719.43396	0.67389
717.50519	0.65193
715.57641	0.67697
713.64763	0.73259
711.71885	0.78851
709.79008	0.82677
707.86130	0.84939
705.93252	0.86313
704.00374	0.87157
702.07497	0.87695
700.14619	0.88055
698.21741	0.88301
696.28863	0.88493
694.35986	0.88664
692.43108	0.88793
690.50230	0.88831
688.57352	0.88797
686.64475	0.88787
684.71597	0.88813
682.78719	0.88811
680.85842	0.88809
678.92964	0.88856
677.00086	0.88882
675.07208	0.88866
673.14331	0.88868
671.21453	0.88857
669.28575	0.88858
667.35697	0.89032
665.42820	0.89198
663.49942	0.89282
661.57064	0.89378
659.64186	0.89454
657.71309	0.89476
655.78431	0.89458
653.85553	0.89436
651.92675	0.89453
649.99798	0.89496
648.06920	0.89575
646.14042	0.89712
644.21164	0.89843
642.28287	0.89898
640.35409	0.89908
638.42531	0.89960
636.49654	0.90096
634.56776	0.90218
632.63898	0.90217
630.71020	0.90191
628.78143	0.90215
626.85265	0.90232
624.92387	0.90266
622.99509	0.90389
621.06632	0.90554
619.13754	0.90610
617.20876	0.90530
615.27998	0.90494
613.35121	0.90528
611.42243	0.90483
609.49365	0.90388
607.56487	0.90452
605.63610	0.90671
603.70732	0.90812
601.77854	0.90884
599.84977	0.90989
597.92099	0.91006
595.99221	0.90906
594.06343	0.90735
592.13466	0.90476
590.20588	0.90324
588.27710	0.90513
586.34832	0.90857
584.41955	0.90993
582.49077	0.90912
580.56199	0.90852
578.63321	0.90869
576.70444	0.90921
574.77566	0.90952
572.84688	0.90728
570.91810	0.90295
568.98933	0.90110
567.06055	0.90369
565.13177	0.90812
563.20299	0.90993
561.27422	0.90688
559.34544	0.90272
557.41666	0.90393
555.48789	0.90929
553.55911	0.91055
551.63033	0.90782
549.70155	0.90682
547.77278	0.90697
545.84400	0.90625
543.91522	0.90517
541.98644	0.90574
540.05767	0.91042
538.12889	0.91644
536.20011	0.91876
534.27133	0.91958
532.34256	0.92040
530.41378	0.91952
528.48500	0.92166
526.55622	0.92436
524.62745	0.91690
522.69867	0.90434
520.76989	0.89663
518.84112	0.89688
516.91234	0.90349
514.98356	0.90710
513.05478	0.91222
511.12601	0.93016
509.19723	0.94398
507.26845	0.93354
505.33967	0.90901
503.41090	0.88141
501.48212	0.86735
499.55334	0.89396
497.62456	0.93092
495.69579	0.93894
493.76701	0.97135
491.83823	1.04708
489.90945	1.07982
487.98068	1.09277
486.05190	1.11905
484.12312	0.94599
482.19434	0.66137
480.26557	0.45454
478.33679	0.35473
476.40801	0.36124
474.47924	0.53884
472.55046	0.76431
470.62168	0.76006
468.69290	0.90169
466.76413	1.16838
464.83535	1.14356
462.90657	1.09896
460.97779	1.51502
459.04902	1.81069
457.12024	2.27373
455.19146	2.27373
453.26268	-2.75226
451.33391	1.44861
449.40513	0.91881
