3996.42673	0.91844
3994.49795	0.91854
3992.56918	0.91834
3990.64040	0.91797
3988.71162	0.91791
3986.78284	0.91795
3984.85407	0.91771
3982.92529	0.91745
3980.99651	0.91751
3979.06773	0.91771
3977.13896	0.91784
3975.21018	0.91784
3973.28140	0.91749
3971.35262	0.91709
3969.42385	0.91730
3967.49507	0.91787
3965.56629	0.91812
3963.63752	0.91801
3961.70874	0.91794
3959.77996	0.91817
3957.85118	0.91865
3955.92241	0.91899
3953.99363	0.91883
3952.06485	0.91824
3950.13607	0.91798
3948.20730	0.91853
3946.27852	0.91870
3944.34974	0.91807
3942.42096	0.91794
3940.49219	0.91837
3938.56341	0.91869
3936.63463	0.91849
3934.70585	0.91766
3932.77708	0.91705
3930.84830	0.91735
3928.91952	0.91790
3926.99075	0.91837
3925.06197	0.91905
3923.13319	0.91923
3921.20441	0.91833
3919.27564	0.91763
3917.34686	0.91833
3915.41808	0.91950
3913.48930	0.91971
3911.56053	0.91928
3909.63175	0.91863
3907.70297	0.91742
3905.77419	0.91636
3903.84542	0.91676
3901.91664	0.91825
3899.98786	0.91981
3898.05908	0.92049
3896.13031	0.91957
3894.20153	0.91790
3892.27275	0.91750
3890.34397	0.91881
3888.41520	0.91931
3886.48642	0.91917
3884.55764	0.91949
3882.62887	0.91919
3880.70009	0.91925
3878.77131	0.91987
3876.84253	0.91934
3874.91376	0.91870
3872.98498	0.91831
3871.05620	0.91795
3869.12742	0.91884
3867.19865	0.91913
3865.26987	0.91862
3863.34109	0.91925
3861.41231	0.91977
3859.48354	0.91896
3857.55476	0.91742
3855.62598	0.91650
3853.69720	0.91937
3851.76843	0.92274
3849.83965	0.92191
3847.91087	0.92018
3845.98210	0.91895
3844.05332	0.91798
3842.12454	0.91692
3840.19576	0.91616
3838.26699	0.91710
3836.33821	0.91924
3834.40943	0.92060
3832.48065	0.92097
3830.55188	0.92026
3828.62310	0.91893
3826.69432	0.91840
3824.76554	0.91828
3822.83677	0.91819
3820.90799	0.91974
3818.97921	0.92045
3817.05043	0.91979
3815.12166	0.92054
3813.19288	0.92085
3811.26410	0.91959
3809.33533	0.91806
3807.40655	0.91787
3805.47777	0.91823
3803.54899	0.91760
3801.62022	0.91847
3799.69144	0.91979
3797.76266	0.91926
3795.83388	0.91945
3793.90511	0.92016
3791.97633	0.92010
3790.04755	0.91972
3788.11877	0.91914
3786.19000	0.91887
3784.26122	0.91924
3782.33244	0.91911
3780.40366	0.91876
3778.47489	0.91932
3776.54611	0.91979
3774.61733	0.91932
3772.68855	0.91842
3770.75978	0.91817
3768.83100	0.91894
3766.90222	0.91966
3764.97345	0.92032
3763.04467	0.92059
3761.11589	0.92022
3759.18711	0.92013
3757.25834	0.91977
3755.32956	0.91813
3753.40078	0.91617
3751.47200	0.91684
3749.54323	0.91987
3747.61445	0.91960
3745.68567	0.91843
3743.75689	0.92072
3741.82812	0.92196
3739.89934	0.92005
3737.97056	0.91789
3736.04178	0.91766
3734.11301	0.91948
3732.18423	0.92132
3730.25545	0.92171
3728.32668	0.92093
3726.39790	0.92023
3724.46912	0.92031
3722.54034	0.92103
3720.61157	0.92198
3718.68279	0.92193
3716.75401	0.92042
3714.82523	0.91838
3712.89646	0.91780
3710.96768	0.92027
3709.03890	0.92211
3707.11012	0.92134
3705.18135	0.91999
3703.25257	0.91981
3701.32379	0.92122
3699.39501	0.92215
3697.46624	0.92146
3695.53746	0.91989
3693.60868	0.91818
3691.67990	0.91730
3689.75113	0.91864
3687.82235	0.92043
3685.89357	0.92024
3683.96480	0.91947
3682.03602	0.91892
3680.10724	0.91824
3678.17846	0.91728
3676.24969	0.91781
3674.32091	0.91964
3672.39213	0.91933
3670.46335	0.91940
3668.53458	0.92076
3666.60580	0.92019
3664.67702	0.91895
3662.74824	0.91863
3660.81947	0.91825
3658.89069	0.91720
3656.96191	0.91703
3655.03313	0.91748
3653.10436	0.91640
3651.17558	0.91508
3649.24680	0.91625
3647.31803	0.91780
3645.38925	0.91748
3643.46047	0.91690
3641.53169	0.91691
3639.60292	0.91701
3637.67414	0.91660
3635.74536	0.91608
3633.81658	0.91545
3631.88781	0.91402
3629.95903	0.91350
3628.03025	0.91657
3626.10147	0.91851
3624.17270	0.91722
3622.24392	0.91506
3620.31514	0.91414
3618.38636	0.91471
3616.45759	0.91482
3614.52881	0.91469
3612.60003	0.91513
3610.67125	0.91577
3608.74248	0.91675
3606.81370	0.91754
3604.88492	0.91715
3602.95615	0.91617
3601.02737	0.91568
3599.09859	0.91569
3597.16981	0.91549
3595.24104	0.91535
3593.31226	0.91572
3591.38348	0.91571
3589.45470	0.91541
3587.52593	0.91623
3585.59715	0.91710
3583.66837	0.91657
3581.73959	0.91600
3579.81082	0.91600
3577.88204	0.91591
3575.95326	0.91552
3574.02448	0.91506
3572.09571	0.91415
3570.16693	0.91290
3568.23815	0.91309
3566.30938	0.91487
3564.38060	0.91471
3562.45182	0.91307
3560.52304	0.91242
3558.59427	0.91278
3556.66549	0.91282
3554.73671	0.91222
3552.80793	0.91171
3550.87916	0.91169
3548.95038	0.91197
3547.02160	0.91260
3545.09282	0.91300
3543.16405	0.91252
3541.23527	0.91191
3539.30649	0.91178
3537.37771	0.91220
3535.44894	0.91273
3533.52016	0.91242
3531.59138	0.91151
3529.66260	0.91123
3527.73383	0.91161
3525.80505	0.91178
3523.87627	0.91214
3521.94750	0.91277
3520.01872	0.91279
3518.08994	0.91268
3516.16116	0.91321
3514.23239	0.91377
3512.30361	0.91384
3510.37483	0.91392
3508.44605	0.91400
3506.51728	0.91350
3504.58850	0.91317
3502.65972	0.91391
3500.73094	0.91459
3498.80217	0.91429
3496.87339	0.91381
3494.94461	0.91380
3493.01583	0.91385
3491.08706	0.91368
3489.15828	0.91364
3487.22950	0.91384
3485.30073	0.91404
3483.37195	0.91425
3481.44317	0.91448
3479.51439	0.91439
3477.58562	0.91437
3475.65684	0.91477
3473.72806	0.91489
3471.79928	0.91454
3469.87051	0.91415
3467.94173	0.91369
3466.01295	0.91330
3464.08417	0.91301
3462.15540	0.91266
3460.22662	0.91245
3458.29784	0.91244
3456.36906	0.91234
3454.44029	0.91203
3452.51151	0.91159
3450.58273	0.91103
3448.65396	0.91048
3446.72518	0.91022
3444.79640	0.90997
3442.86762	0.90934
3440.93885	0.90863
3439.01007	0.90815
3437.08129	0.90763
3435.15251	0.90688
3433.22374	0.90622
3431.29496	0.90599
3429.36618	0.90625
3427.43740	0.90665
3425.50863	0.90657
3423.57985	0.90627
3421.65107	0.90657
3419.72229	0.90748
3417.79352	0.90861
3415.86474	0.90989
3413.93596	0.91076
3412.00718	0.91073
3410.07841	0.91043
3408.14963	0.91071
3406.22085	0.91159
3404.29208	0.91255
3402.36330	0.91328
3400.43452	0.91381
3398.50574	0.91414
3396.57697	0.91423
3394.64819	0.91433
3392.71941	0.91469
3390.79063	0.91474
3388.86186	0.91421
3386.93308	0.91390
3385.00430	0.91428
3383.07552	0.91478
3381.14675	0.91501
3379.21797	0.91516
3377.28919	0.91533
3375.36041	0.91549
3373.43164	0.91568
3371.50286	0.91577
3369.57408	0.91564
3367.64531	0.91560
3365.71653	0.91591
3363.78775	0.91611
3361.85897	0.91582
3359.93020	0.91540
3358.00142	0.91531
3356.07264	0.91538
3354.14386	0.91511
3352.21509	0.91466
3350.28631	0.91453
3348.35753	0.91466
3346.42875	0.91471
3344.49998	0.91476
3342.57120	0.91500
3340.64242	0.91521
3338.71364	0.91506
3336.78487	0.91477
3334.85609	0.91473
3332.92731	0.91496
3330.99853	0.91505
3329.06976	0.91476
3327.14098	0.91456
3325.21220	0.91477
3323.28343	0.91525
3321.35465	0.91572
3319.42587	0.91592
3317.49709	0.91591
3315.56832	0.91596
3313.63954	0.91619
3311.71076	0.91643
3309.78198	0.91639
3307.85321	0.91606
3305.92443	0.91576
3303.99565	0.91578
3302.06687	0.91591
3300.13810	0.91573
3298.20932	0.91556
3296.28054	0.91585
3294.35176	0.91628
3292.42299	0.91657
3290.49421	0.91687
3288.56543	0.91710
3286.63666	0.91693
3284.70788	0.91650
3282.77910	0.91641
3280.85032	0.91683
3278.92155	0.91726
3276.99277	0.91738
3275.06399	0.91744
3273.13521	0.91734
3271.20644	0.91685
3269.27766	0.91662
3267.34888	0.91713
3265.42010	0.91773
3263.49133	0.91756
3261.56255	0.91692
3259.63377	0.91670
3257.70499	0.91687
3255.77622	0.91675
3253.84744	0.91654
3251.91866	0.91666
3249.98988	0.91698
3248.06111	0.91729
3246.13233	0.91747
3244.20355	0.91735
3242.27478	0.91707
3240.34600	0.91722
3238.41722	0.91779
3236.48844	0.91802
3234.55967	0.91773
3232.63089	0.91739
3230.70211	0.91713
3228.77333	0.91695
3226.84456	0.91702
3224.91578	0.91733
3222.98700	0.91766
3221.05822	0.91775
3219.12945	0.91754
3217.20067	0.91741
3215.27189	0.91756
3213.34311	0.91782
3211.41434	0.91805
3209.48556	0.91823
3207.55678	0.91831
3205.62801	0.91826
3203.69923	0.91821
3201.77045	0.91808
3199.84167	0.91769
3197.91290	0.91737
3195.98412	0.91754
3194.05534	0.91787
3192.12656	0.91794
3190.19779	0.91803
3188.26901	0.91826
3186.34023	0.91830
3184.41145	0.91820
3182.48268	0.91812
3180.55390	0.91807
3178.62512	0.91816
3176.69634	0.91827
3174.76757	0.91825
3172.83879	0.91813
3170.91001	0.91799
3168.98123	0.91799
3167.05246	0.91809
3165.12368	0.91813
3163.19490	0.91817
3161.26613	0.91822
3159.33735	0.91818
3157.40857	0.91804
3155.47979	0.91784
3153.55102	0.91791
3151.62224	0.91831
3149.69346	0.91851
3147.76468	0.91833
3145.83591	0.91808
3143.90713	0.91777
3141.97835	0.91756
3140.04957	0.91765
3138.12080	0.91751
3136.19202	0.91694
3134.26324	0.91647
3132.33446	0.91618
3130.40569	0.91589
3128.47691	0.91582
3126.54813	0.91600
3124.61936	0.91621
3122.69058	0.91638
3120.76180	0.91638
3118.83302	0.91614
3116.90425	0.91573
3114.97547	0.91515
3113.04669	0.91471
3111.11791	0.91451
3109.18914	0.91427
3107.26036	0.91381
3105.33158	0.91325
3103.40280	0.91290
3101.47403	0.91289
3099.54525	0.91301
3097.61647	0.91327
3095.68769	0.91369
3093.75892	0.91389
3091.83014	0.91363
3089.90136	0.91303
3087.97258	0.91245
3086.04381	0.91223
3084.11503	0.91220
3082.18625	0.91199
3080.25748	0.91153
3078.32870	0.91103
3076.39992	0.91070
3074.47114	0.91065
3072.54237	0.91068
3070.61359	0.91039
3068.68481	0.90990
3066.75603	0.90982
3064.82726	0.91024
3062.89848	0.91053
3060.96970	0.91036
3059.04092	0.91013
3057.11215	0.91017
3055.18337	0.91036
3053.25459	0.91061
3051.32581	0.91103
3049.39704	0.91187
3047.46826	0.91305
3045.53948	0.91415
3043.61071	0.91511
3041.68193	0.91595
3039.75315	0.91636
3037.82437	0.91628
3035.89560	0.91611
3033.96682	0.91597
3032.03804	0.91555
3030.10926	0.91488
3028.18049	0.91438
3026.25171	0.91409
3024.32293	0.91372
3022.39415	0.91295
3020.46538	0.91168
3018.53660	0.91033
3016.60782	0.90939
3014.67904	0.90873
3012.75027	0.90819
3010.82149	0.90773
3008.89271	0.90712
3006.96394	0.90635
3005.03516	0.90567
3003.10638	0.90525
3001.17760	0.90467
2999.24883	0.90373
2997.32005	0.90294
2995.39127	0.90251
2993.46249	0.90202
2991.53372	0.90119
2989.60494	0.89993
2987.67616	0.89834
2985.74738	0.89671
2983.81861	0.89507
2981.88983	0.89332
2979.96105	0.89135
2978.03227	0.88901
2976.10350	0.88643
2974.17472	0.88404
2972.24594	0.88200
2970.31716	0.88031
2968.38839	0.87922
2966.45961	0.87894
2964.53083	0.87932
2962.60206	0.88006
2960.67328	0.88086
2958.74450	0.88169
2956.81572	0.88288
2954.88695	0.88458
2952.95817	0.88646
2951.02939	0.88828
2949.10061	0.89024
2947.17184	0.89253
2945.24306	0.89492
2943.31428	0.89717
2941.38550	0.89926
2939.45673	0.90113
2937.52795	0.90272
2935.59917	0.90410
2933.67039	0.90531
2931.74162	0.90602
2929.81284	0.90613
2927.88406	0.90591
2925.95529	0.90566
2924.02651	0.90569
2922.09773	0.90581
2920.16895	0.90545
2918.24018	0.90449
2916.31140	0.90321
2914.38262	0.90186
2912.45384	0.90050
2910.52507	0.89927
2908.59629	0.89857
2906.66751	0.89864
2904.73873	0.89932
2902.80996	0.90048
2900.88118	0.90181
2898.95240	0.90277
2897.02362	0.90331
2895.09485	0.90364
2893.16607	0.90373
2891.23729	0.90374
2889.30851	0.90392
2887.37974	0.90423
2885.45096	0.90454
2883.52218	0.90480
2881.59341	0.90519
2879.66463	0.90589
2877.73585	0.90653
2875.80707	0.90679
2873.87830	0.90695
2871.94952	0.90725
2870.02074	0.90770
2868.09196	0.90827
2866.16319	0.90881
2864.23441	0.90914
2862.30563	0.90929
2860.37685	0.90954
2858.44808	0.90989
2856.51930	0.91007
2854.59052	0.91031
2852.66174	0.91089
2850.73297	0.91149
2848.80419	0.91189
2846.87541	0.91221
2844.94664	0.91257
2843.01786	0.91303
2841.08908	0.91358
2839.16030	0.91407
2837.23153	0.91455
2835.30275	0.91523
2833.37397	0.91582
2831.44519	0.91587
2829.51642	0.91583
2827.58764	0.91614
2825.65886	0.91655
2823.73008	0.91686
2821.80131	0.91713
2819.87253	0.91734
2817.94375	0.91727
2816.01497	0.91691
2814.08620	0.91664
2812.15742	0.91672
2810.22864	0.91699
2808.29986	0.91705
2806.37109	0.91693
2804.44231	0.91691
2802.51353	0.91712
2800.58476	0.91750
2798.65598	0.91784
2796.72720	0.91800
2794.79842	0.91808
2792.86965	0.91823
2790.94087	0.91844
2789.01209	0.91867
2787.08331	0.91884
2785.15454	0.91885
2783.22576	0.91892
2781.29698	0.91923
2779.36820	0.91951
2777.43943	0.91951
2775.51065	0.91942
2773.58187	0.91940
2771.65309	0.91942
2769.72432	0.91950
2767.79554	0.91965
2765.86676	0.91974
2763.93799	0.91979
2762.00921	0.91983
2760.08043	0.91983
2758.15165	0.91986
2756.22288	0.91999
2754.29410	0.92012
2752.36532	0.92013
2750.43654	0.92007
2748.50777	0.92009
2746.57899	0.92020
2744.65021	0.92038
2742.72143	0.92057
2740.79266	0.92076
2738.86388	0.92099
2736.93510	0.92112
2735.00632	0.92105
2733.07755	0.92104
2731.14877	0.92142
2729.21999	0.92197
2727.29121	0.92228
2725.36244	0.92228
2723.43366	0.92211
2721.50488	0.92190
2719.57611	0.92178
2717.64733	0.92182
2715.71855	0.92194
2713.78977	0.92204
2711.86100	0.92207
2709.93222	0.92209
2708.00344	0.92228
2706.07466	0.92259
2704.14589	0.92275
2702.21711	0.92276
2700.28833	0.92284
2698.35955	0.92299
2696.43078	0.92303
2694.50200	0.92296
2692.57322	0.92294
2690.64444	0.92316
2688.71567	0.92342
2686.78689	0.92333
2684.85811	0.92297
2682.92934	0.92278
2681.00056	0.92289
2679.07178	0.92312
2677.14300	0.92326
2675.21423	0.92326
2673.28545	0.92308
2671.35667	0.92287
2669.42789	0.92287
2667.49912	0.92300
2665.57034	0.92294
2663.64156	0.92266
2661.71278	0.92243
2659.78401	0.92222
2657.85523	0.92183
2655.92645	0.92148
2653.99767	0.92138
2652.06890	0.92142
2650.14012	0.92160
2648.21134	0.92179
2646.28257	0.92180
2644.35379	0.92172
2642.42501	0.92158
2640.49623	0.92142
2638.56746	0.92139
2636.63868	0.92166
2634.70990	0.92202
2632.78112	0.92208
2630.85235	0.92188
2628.92357	0.92178
2626.99479	0.92198
2625.06601	0.92220
2623.13724	0.92220
2621.20846	0.92221
2619.27968	0.92234
2617.35090	0.92247
2615.42213	0.92255
2613.49335	0.92269
2611.56457	0.92287
2609.63579	0.92297
2607.70702	0.92288
2605.77824	0.92277
2603.84946	0.92280
2601.92069	0.92284
2599.99191	0.92276
2598.06313	0.92263
2596.13435	0.92267
2594.20558	0.92288
2592.27680	0.92312
2590.34802	0.92337
2588.41924	0.92326
2586.49047	0.92269
2584.56169	0.92243
2582.63291	0.92277
2580.70413	0.92310
2578.77536	0.92325
2576.84658	0.92338
2574.91780	0.92331
2572.98902	0.92313
2571.06025	0.92315
2569.13147	0.92347
2567.20269	0.92387
2565.27392	0.92408
2563.34514	0.92421
2561.41636	0.92429
2559.48758	0.92414
2557.55881	0.92388
2555.63003	0.92366
2553.70125	0.92371
2551.77247	0.92410
2549.84370	0.92427
2547.91492	0.92387
2545.98614	0.92327
2544.05736	0.92304
2542.12859	0.92342
2540.19981	0.92383
2538.27103	0.92392
2536.34225	0.92421
2534.41348	0.92473
2532.48470	0.92492
2530.55592	0.92490
2528.62714	0.92508
2526.69837	0.92529
2524.76959	0.92520
2522.84081	0.92483
2520.91204	0.92465
2518.98326	0.92488
2517.05448	0.92513
2515.12570	0.92508
2513.19693	0.92506
2511.26815	0.92526
2509.33937	0.92554
2507.41059	0.92589
2505.48182	0.92617
2503.55304	0.92598
2501.62426	0.92561
2499.69548	0.92574
2497.76671	0.92635
2495.83793	0.92696
2493.90915	0.92722
2491.98037	0.92703
2490.05160	0.92681
2488.12282	0.92702
2486.19404	0.92751
2484.26527	0.92786
2482.33649	0.92763
2480.40771	0.92702
2478.47893	0.92692
2476.55016	0.92755
2474.62138	0.92812
2472.69260	0.92820
2470.76382	0.92830
2468.83505	0.92856
2466.90627	0.92857
2464.97749	0.92837
2463.04871	0.92826
2461.11994	0.92805
2459.19116	0.92778
2457.26238	0.92780
2455.33360	0.92817
2453.40483	0.92867
2451.47605	0.92900
2449.54727	0.92888
2447.61849	0.92849
2445.68972	0.92834
2443.76094	0.92859
2441.83216	0.92885
2439.90339	0.92881
2437.97461	0.92864
2436.04583	0.92872
2434.11705	0.92891
2432.18828	0.92883
2430.25950	0.92869
2428.33072	0.92885
2426.40194	0.92911
2424.47317	0.92922
2422.54439	0.92921
2420.61561	0.92915
2418.68683	0.92915
2416.75806	0.92923
2414.82928	0.92918
2412.90050	0.92879
2410.97172	0.92833
2409.04295	0.92823
2407.11417	0.92852
2405.18539	0.92891
2403.25662	0.92888
2401.32784	0.92843
2399.39906	0.92821
2397.47028	0.92843
2395.54151	0.92880
2393.61273	0.92902
2391.68395	0.92883
2389.75517	0.92835
2387.82640	0.92803
2385.89762	0.92787
2383.96884	0.92763
2382.04006	0.92739
2380.11129	0.92726
2378.18251	0.92715
2376.25373	0.92692
2374.32495	0.92668
2372.39618	0.92697
2370.46740	0.92747
2368.53862	0.92722
2366.60984	0.92670
2364.68107	0.92725
2362.75229	0.92813
2360.82351	0.92790
2358.89474	0.92766
2356.96596	0.92854
2355.03718	0.92982
2353.10840	0.93072
2351.17963	0.93069
2349.25085	0.92977
2347.32207	0.92859
2345.39329	0.92775
2343.46452	0.92752
2341.53574	0.92804
2339.60696	0.92905
2337.67818	0.92953
2335.74941	0.92944
2333.82063	0.92955
2331.89185	0.92962
2329.96307	0.92868
2328.03430	0.92643
2326.10552	0.92406
2324.17674	0.92327
2322.24797	0.92412
2320.31919	0.92506
2318.39041	0.92555
2316.46163	0.92600
2314.53286	0.92670
2312.60408	0.92752
2310.67530	0.92784
2308.74652	0.92765
2306.81775	0.92768
2304.88897	0.92812
2302.96019	0.92833
2301.03141	0.92787
2299.10264	0.92723
2297.17386	0.92678
2295.24508	0.92641
2293.31630	0.92597
2291.38753	0.92507
2289.45875	0.92379
2287.52997	0.92304
2285.60120	0.92334
2283.67242	0.92440
2281.74364	0.92544
2279.81486	0.92594
2277.88609	0.92623
2275.95731	0.92668
2274.02853	0.92738
2272.09975	0.92810
2270.17098	0.92830
2268.24220	0.92781
2266.31342	0.92703
2264.38464	0.92643
2262.45587	0.92649
2260.52709	0.92722
2258.59831	0.92772
2256.66953	0.92762
2254.74076	0.92777
2252.81198	0.92867
2250.88320	0.92986
2248.95442	0.93063
2247.02565	0.93081
2245.09687	0.93070
2243.16809	0.93044
2241.23932	0.93010
2239.31054	0.93009
2237.38176	0.93017
2235.45298	0.92968
2233.52421	0.92935
2231.59543	0.93007
2229.66665	0.93096
2227.73787	0.93104
2225.80910	0.93044
2223.88032	0.92997
2221.95154	0.93047
2220.02276	0.93139
2218.09399	0.93160
2216.16521	0.93160
2214.23643	0.93246
2212.30765	0.93368
2210.37888	0.93363
2208.45010	0.93218
2206.52132	0.93119
2204.59255	0.93130
2202.66377	0.93161
2200.73499	0.93168
2198.80621	0.93139
2196.87744	0.93090
2194.94866	0.93075
2193.01988	0.93102
2191.09110	0.93153
2189.16233	0.93181
2187.23355	0.93115
2185.30477	0.93028
2183.37599	0.93064
2181.44722	0.93160
2179.51844	0.93224
2177.58966	0.93360
2175.66088	0.93521
2173.73211	0.93439
2171.80333	0.93157
2169.87455	0.92971
2167.94577	0.92903
2166.01700	0.92786
2164.08822	0.92651
2162.15944	0.92864
2160.23067	0.93689
2158.30189	0.94562
2156.37311	0.94778
2154.44433	0.94564
2152.51556	0.94374
2150.58678	0.94265
2148.65800	0.94140
2146.72922	0.94005
2144.80045	0.93953
2142.87167	0.94009
2140.94289	0.94102
2139.01411	0.94176
2137.08534	0.94256
2135.15656	0.94308
2133.22778	0.94240
2131.29900	0.94095
2129.37023	0.93983
2127.44145	0.93916
2125.51267	0.93847
2123.58390	0.93759
2121.65512	0.93651
2119.72634	0.93514
2117.79756	0.93378
2115.86879	0.93313
2113.94001	0.93325
2112.01123	0.93333
2110.08245	0.93288
2108.15368	0.93271
2106.22490	0.93318
2104.29612	0.93323
2102.36734	0.93273
2100.43857	0.93278
2098.50979	0.93367
2096.58101	0.93497
2094.65223	0.93606
2092.72346	0.93613
2090.79468	0.93533
2088.86590	0.93457
2086.93712	0.93433
2085.00835	0.93426
2083.07957	0.93407
2081.15079	0.93402
2079.22202	0.93387
2077.29324	0.93391
2075.36446	0.93466
2073.43568	0.93545
2071.50691	0.93585
2069.57813	0.93617
2067.64935	0.93646
2065.72057	0.93690
2063.79180	0.93748
2061.86302	0.93761
2059.93424	0.93745
2058.00546	0.93766
2056.07669	0.93795
2054.14791	0.93661
2052.21913	0.93351
2050.29035	0.93237
2048.36158	0.93466
2046.43280	0.93717
2044.50402	0.93854
2042.57525	0.93955
2040.64647	0.93995
2038.71769	0.93923
2036.78891	0.93827
2034.86014	0.93851
2032.93136	0.94002
2031.00258	0.94151
2029.07380	0.94204
2027.14503	0.94212
2025.21625	0.94243
2023.28747	0.94309
2021.35869	0.94351
2019.42992	0.94307
2017.50114	0.94270
2015.57236	0.94300
2013.64358	0.94275
2011.71481	0.94150
2009.78603	0.94074
2007.85725	0.94209
2005.92847	0.94444
2003.99970	0.94496
2002.07092	0.94306
2000.14214	0.94056
1998.21337	0.93924
1996.28459	0.93891
1994.35581	0.93839
1992.42703	0.93785
1990.49826	0.93793
1988.56948	0.93792
1986.64070	0.93676
1984.71192	0.93457
1982.78315	0.93233
1980.85437	0.93166
1978.92559	0.93422
1976.99681	0.93863
1975.06804	0.94147
1973.13926	0.94191
1971.21048	0.94091
1969.28170	0.93904
1967.35293	0.93692
1965.42415	0.93582
1963.49537	0.93640
1961.56660	0.93785
1959.63782	0.93852
1957.70904	0.93775
1955.78026	0.93691
1953.85149	0.93696
1951.92271	0.93707
1949.99393	0.93696
1948.06515	0.93718
1946.13638	0.93779
1944.20760	0.93883
1942.27882	0.93971
1940.35004	0.94006
1938.42127	0.94084
1936.49249	0.94209
1934.56371	0.94287
1932.63493	0.94309
1930.70616	0.94328
1928.77738	0.94369
1926.84860	0.94425
1924.91983	0.94459
1922.99105	0.94495
1921.06227	0.94556
1919.13349	0.94602
1917.20472	0.94637
1915.27594	0.94657
1913.34716	0.94641
1911.41838	0.94623
1909.48961	0.94634
1907.56083	0.94666
1905.63205	0.94709
1903.70327	0.94758
1901.77450	0.94801
1899.84572	0.94848
1897.91694	0.94895
1895.98816	0.94930
1894.05939	0.94936
1892.13061	0.94921
1890.20183	0.94933
1888.27305	0.94970
1886.34428	0.95001
1884.41550	0.95033
1882.48672	0.95051
1880.55795	0.95049
1878.62917	0.95054
1876.70039	0.95075
1874.77161	0.95085
1872.84284	0.95056
1870.91406	0.94996
1868.98528	0.94992
1867.05650	0.95060
1865.12773	0.95094
1863.19895	0.95072
1861.27017	0.95019
1859.34139	0.94972
1857.41262	0.94950
1855.48384	0.94932
1853.55506	0.94883
1851.62628	0.94807
1849.69751	0.94731
1847.76873	0.94658
1845.83995	0.94613
1843.91118	0.94604
1841.98240	0.94575
1840.05362	0.94513
1838.12484	0.94462
1836.19607	0.94430
1834.26729	0.94376
1832.33851	0.94306
1830.40973	0.94242
1828.48096	0.94209
1826.55218	0.94208
1824.62340	0.94225
1822.69462	0.94226
1820.76585	0.94207
1818.83707	0.94225
1816.90829	0.94273
1814.97951	0.94300
1813.05074	0.94288
1811.12196	0.94256
1809.19318	0.94244
1807.26440	0.94258
1805.33563	0.94273
1803.40685	0.94264
1801.47807	0.94257
1799.54930	0.94278
1797.62052	0.94305
1795.69174	0.94315
1793.76296	0.94311
1791.83419	0.94351
1789.90541	0.94399
1787.97663	0.94405
1786.04785	0.94386
1784.11908	0.94354
1782.19030	0.94315
1780.26152	0.94294
1778.33274	0.94310
1776.40397	0.94304
1774.47519	0.94250
1772.54641	0.94176
1770.61763	0.94108
1768.68886	0.94043
1766.76008	0.93962
1764.83130	0.93856
1762.90253	0.93687
1760.97375	0.93455
1759.04497	0.93169
1757.11619	0.92783
1755.18742	0.92284
1753.25864	0.91634
1751.32986	0.90615
1749.40108	0.88975
1747.47231	0.86890
1745.54353	0.84415
1743.61475	0.81417
1741.68597	0.77852
1739.75720	0.73652
1737.82842	0.69739
1735.89964	0.66123
1733.97086	0.61043
1732.04209	0.55725
1730.11331	0.51605
1728.18453	0.47590
1726.25575	0.43626
1724.32698	0.39552
1722.39820	0.35537
1720.46942	0.31999
1718.54065	0.28050
1716.61187	0.23449
1714.68309	0.20810
1712.75431	0.20278
1710.82554	0.21129
1708.89676	0.23119
1706.96798	0.26473
1705.03920	0.31050
1703.11043	0.35152
1701.18165	0.39719
1699.25287	0.45594
1697.32409	0.50294
1695.39532	0.54479
1693.46654	0.57601
1691.53776	0.59634
1689.60898	0.61633
1687.68021	0.63265
1685.75143	0.64623
1683.82265	0.66853
1681.89388	0.68778
1679.96510	0.69828
1678.03632	0.70804
1676.10754	0.72100
1674.17877	0.73625
1672.24999	0.74744
1670.32121	0.75906
1668.39243	0.77426
1666.46366	0.78413
1664.53488	0.79160
1662.60610	0.80249
1660.67732	0.81317
1658.74855	0.81918
1656.81977	0.82202
1654.89099	0.82554
1652.96221	0.83683
1651.03344	0.84493
1649.10466	0.84596
1647.17588	0.84990
1645.24710	0.85623
1643.31833	0.85879
1641.38955	0.85980
1639.46077	0.86064
1637.53200	0.86231
1635.60322	0.86703
1633.67444	0.87123
1631.74566	0.87213
1629.81689	0.87267
1627.88811	0.87408
1625.95933	0.87515
1624.03055	0.87594
1622.10178	0.87630
1620.17300	0.87473
1618.24422	0.87135
1616.31544	0.86765
1614.38667	0.86540
1612.45789	0.86471
1610.52911	0.86596
1608.60033	0.86902
1606.67156	0.87257
1604.74278	0.87561
1602.81400	0.87839
1600.88523	0.88126
1598.95645	0.88400
1597.02767	0.88645
1595.09889	0.88823
1593.17012	0.88898
1591.24134	0.88844
1589.31256	0.88665
1587.38378	0.88319
1585.45501	0.87698
1583.52623	0.86756
1581.59745	0.85666
1579.66867	0.84774
1577.73990	0.84427
1575.81112	0.84979
1573.88234	0.85792
1571.95356	0.86335
1570.02479	0.86970
1568.09601	0.87603
1566.16723	0.87950
1564.23845	0.88155
1562.30968	0.88245
1560.38090	0.88357
1558.45212	0.89035
1556.52335	0.89679
1554.59457	0.89971
1552.66579	0.90245
1550.73701	0.90524
1548.80824	0.90792
1546.87946	0.90987
1544.95068	0.91139
1543.02190	0.91279
1541.09313	0.91471
1539.16435	0.91793
1537.23557	0.91878
1535.30679	0.91800
1533.37802	0.91727
1531.44924	0.91682
1529.52046	0.91614
1527.59168	0.91555
1525.66291	0.91529
1523.73413	0.91533
1521.80535	0.91679
1519.87658	0.91888
1517.94780	0.91942
1516.01902	0.91841
1514.09024	0.91527
1512.16147	0.90869
1510.23269	0.89745
1508.30391	0.87706
1506.37513	0.84927
1504.44636	0.84552
1502.51758	0.85878
1500.58880	0.87745
1498.66002	0.89653
1496.73125	0.91105
1494.80247	0.91805
1492.87369	0.91990
1490.94491	0.92001
1489.01614	0.91922
1487.08736	0.91685
1485.15858	0.91295
1483.22981	0.90800
1481.30103	0.90216
1479.37225	0.89601
1477.44347	0.88955
1475.51470	0.88200
1473.58592	0.87375
1471.65714	0.86909
1469.72836	0.87009
1467.79959	0.87261
1465.87081	0.87361
1463.94203	0.87141
1462.01325	0.86703
1460.08448	0.86181
1458.15570	0.85515
1456.22692	0.84869
1454.29814	0.84580
1452.36937	0.84506
1450.44059	0.84578
1448.51181	0.84799
1446.58303	0.85091
1444.65426	0.85320
1442.72548	0.85509
1440.79670	0.85713
1438.86793	0.86016
1436.93915	0.86685
1435.01037	0.87622
1433.08159	0.88399
1431.15282	0.89129
1429.22404	0.89832
1427.29526	0.90251
1425.36648	0.90326
1423.43771	0.90086
1421.50893	0.89449
1419.58015	0.87887
1417.65137	0.84838
1415.72260	0.80896
1413.79382	0.76261
1411.86504	0.71351
1409.93626	0.67788
1408.00749	0.66907
1406.07871	0.68680
1404.14993	0.71962
1402.22116	0.74938
1400.29238	0.77212
1398.36360	0.79131
1396.43482	0.80590
1394.50605	0.81682
1392.57727	0.82431
1390.64849	0.82865
1388.71971	0.83211
1386.79094	0.83568
1384.86216	0.83849
1382.93338	0.84021
1381.00460	0.84105
1379.07583	0.84038
1377.14705	0.83776
1375.21827	0.83348
1373.28949	0.82891
1371.36072	0.82654
1369.43194	0.82845
1367.50316	0.83551
1365.57438	0.84610
1363.64561	0.85893
1361.71683	0.87156
1359.78805	0.87956
1357.85928	0.88268
1355.93050	0.88203
1354.00172	0.87742
1352.07294	0.86806
1350.14417	0.85203
1348.21539	0.82668
1346.28661	0.79092
1344.35783	0.74818
1342.42906	0.70789
1340.50028	0.68299
1338.57150	0.68690
1336.64272	0.71854
1334.71395	0.76222
1332.78517	0.80458
1330.85639	0.83735
1328.92761	0.85747
1326.99884	0.86668
1325.07006	0.86856
1323.14128	0.86608
1321.21251	0.86101
1319.28373	0.85430
1317.35495	0.84666
1315.42617	0.83833
1313.49740	0.82886
1311.56862	0.81809
1309.63984	0.80652
1307.71106	0.79455
1305.78229	0.78232
1303.85351	0.76919
1301.92473	0.75366
1299.99595	0.73471
1298.06718	0.71257
1296.13840	0.68862
1294.20962	0.66452
1292.28084	0.64126
1290.35207	0.61917
1288.42329	0.59828
1286.49451	0.57875
1284.56573	0.56063
1282.63696	0.54355
1280.70818	0.52702
1278.77940	0.51047
1276.85063	0.49325
1274.92185	0.47461
1272.99307	0.45363
1271.06429	0.42981
1269.13552	0.40390
1267.20674	0.37741
1265.27796	0.35193
1263.34918	0.32904
1261.42041	0.30952
1259.49163	0.29330
1257.56285	0.27943
1255.63407	0.26615
1253.70530	0.25187
1251.77652	0.23615
1249.84774	0.21980
1247.91896	0.20423
1245.99019	0.19077
1244.06141	0.18040
1242.13263	0.17396
1240.20386	0.17255
1238.27508	0.17707
1236.34630	0.18795
1234.41752	0.20475
1232.48875	0.22633
1230.55997	0.25096
1228.63119	0.27691
1226.70241	0.30321
1224.77364	0.32979
1222.84486	0.35723
1220.91608	0.38617
1218.98730	0.41674
1217.05853	0.44785
1215.12975	0.47802
1213.20097	0.50656
1211.27219	0.53332
1209.34342	0.55831
1207.41464	0.58199
1205.48586	0.60495
1203.55708	0.62724
1201.62831	0.64863
1199.69953	0.66906
1197.77075	0.68846
1195.84198	0.70662
1193.91320	0.72343
1191.98442	0.73880
1190.05564	0.75220
1188.12687	0.76278
1186.19809	0.76993
1184.26931	0.77342
1182.34053	0.77327
1180.41176	0.77022
1178.48298	0.76600
1176.55420	0.76292
1174.62542	0.76318
1172.69665	0.76839
1170.76787	0.77875
1168.83909	0.79239
1166.91031	0.80590
1164.98154	0.81627
1163.05276	0.82237
1161.12398	0.82463
1159.19521	0.82395
1157.26643	0.82071
1155.33765	0.81466
1153.40887	0.80561
1151.48010	0.79370
1149.55132	0.77907
1147.62254	0.76179
1145.69376	0.74195
1143.76499	0.71963
1141.83621	0.69475
1139.90743	0.66713
1137.97865	0.63673
1136.04988	0.60368
1134.12110	0.56834
1132.19232	0.53152
1130.26354	0.49465
1128.33477	0.45961
1126.40599	0.42809
1124.47721	0.40129
1122.54844	0.38015
1120.61966	0.36558
1118.69088	0.35815
1116.76210	0.35697
1114.83333	0.35906
1112.90455	0.36028
1110.97577	0.35704
1109.04699	0.34733
1107.11822	0.33116
1105.18944	0.31063
1103.26066	0.28876
1101.33188	0.26813
1099.40311	0.25031
1097.47433	0.23631
1095.54555	0.22693
1093.61677	0.22238
1091.68800	0.22216
1089.75922	0.22541
1087.83044	0.23159
1085.90166	0.24080
1083.97289	0.25367
1082.04411	0.27101
1080.11533	0.29300
1078.18656	0.31931
1076.25778	0.34911
1074.32900	0.38085
1072.40022	0.41265
1070.47145	0.44318
1068.54267	0.47175
1066.61389	0.49799
1064.68511	0.52168
1062.75634	0.54253
1060.82756	0.56038
1058.89878	0.57497
1056.97000	0.58550
1055.04123	0.59164
1053.11245	0.59404
1051.18367	0.59354
1049.25489	0.59088
1047.32612	0.58728
1045.39734	0.58435
1043.46856	0.58349
1041.53979	0.58570
1039.61101	0.59096
1037.68223	0.59843
1035.75345	0.60711
1033.82468	0.61615
1031.89590	0.62389
1029.96712	0.62579
1028.03834	0.61339
1026.10957	0.57982
1024.18079	0.52950
1022.25201	0.47448
1020.32323	0.42290
1018.39446	0.38272
1016.46568	0.36908
1014.53690	0.39168
1012.60812	0.44041
1010.67935	0.49446
1008.75057	0.54023
1006.82179	0.57513
1004.89301	0.60128
1002.96424	0.62131
1001.03546	0.63729
999.10668	0.65057
997.17791	0.66171
995.24913	0.67060
993.32035	0.67707
991.39157	0.68143
989.46280	0.68439
987.53402	0.68666
985.60524	0.68822
983.67646	0.68833
981.74769	0.68621
979.81891	0.68136
977.89013	0.67360
975.96135	0.66360
974.03258	0.65355
972.10380	0.64689
970.17502	0.64640
968.24624	0.65221
966.31747	0.66231
964.38869	0.67420
962.45991	0.68635
960.53114	0.69823
958.60236	0.70946
956.67358	0.71963
954.74480	0.72856
952.81603	0.73629
950.88725	0.74320
948.95847	0.74976
947.02969	0.75583
945.10092	0.76106
943.17214	0.76529
941.24336	0.76874
939.31458	0.77201
937.38581	0.77561
935.45703	0.77943
933.52825	0.78286
931.59947	0.78574
929.67070	0.78857
927.74192	0.79162
925.81314	0.79477
923.88436	0.79790
921.95559	0.80069
920.02681	0.80297
918.09803	0.80453
916.16926	0.80488
914.24048	0.80370
912.31170	0.80092
910.38292	0.79648
908.45415	0.79047
906.52537	0.78300
904.59659	0.77457
902.66781	0.76634
900.73904	0.75961
898.81026	0.75527
896.88148	0.75362
894.95270	0.75436
893.02393	0.75627
891.09515	0.75730
889.16637	0.75570
887.23759	0.75035
885.30882	0.74036
883.38004	0.72497
881.45126	0.70377
879.52249	0.67698
877.59371	0.64394
875.66493	0.60351
873.73615	0.56406
871.80738	0.54784
869.87860	0.56695
867.94982	0.60575
866.02104	0.64218
864.09227	0.66807
862.16349	0.68463
860.23471	0.69403
858.30593	0.69808
856.37716	0.69848
854.44838	0.69584
852.51960	0.68968
850.59082	0.68116
848.66205	0.67471
846.73327	0.67454
844.80449	0.68086
842.87571	0.69049
840.94694	0.69991
839.01816	0.70834
837.08938	0.71720
835.16061	0.72714
833.23183	0.73666
831.30305	0.74373
829.37427	0.74849
827.44550	0.75338
825.51672	0.76022
823.58794	0.76770
821.65916	0.77288
819.73039	0.77524
817.80161	0.77767
815.87283	0.78190
813.94405	0.78576
812.01528	0.78716
810.08650	0.78707
808.15772	0.78807
806.22894	0.79111
804.30017	0.79422
802.37139	0.79590
800.44261	0.79541
798.51384	0.78948
796.58506	0.77569
794.65628	0.75919
792.72750	0.75026
790.79873	0.75385
788.86995	0.76605
786.94117	0.78100
785.01239	0.79606
783.08362	0.80983
781.15484	0.82111
779.22606	0.83020
777.29728	0.83806
775.36851	0.84492
773.43973	0.85083
771.51095	0.85648
769.58217	0.86257
767.65340	0.86901
765.72462	0.87468
763.79584	0.87835
761.86707	0.88071
759.93829	0.88332
758.00951	0.88619
756.08073	0.88856
754.15196	0.88969
752.22318	0.88835
750.29440	0.88401
748.36562	0.87720
746.43685	0.86801
744.50807	0.85396
742.57929	0.82902
740.65051	0.78760
738.72174	0.72878
736.79296	0.65657
734.86418	0.57746
732.93540	0.49671
731.00663	0.41615
729.07785	0.33558
727.14907	0.25731
725.22029	0.19184
723.29152	0.15554
721.36274	0.15847
719.43396	0.19595
717.50519	0.25151
715.57641	0.30989
713.64763	0.36237
711.71885	0.40476
709.79008	0.43798
707.86130	0.46536
705.93252	0.48862
704.00374	0.50874
702.07497	0.52813
700.14619	0.54994
698.21741	0.57507
696.28863	0.60125
694.35986	0.62607
692.43108	0.64837
690.50230	0.66645
688.57352	0.67848
686.64475	0.68530
684.71597	0.68943
682.78719	0.69268
680.85842	0.69616
678.92964	0.70129
677.00086	0.70918
675.07208	0.71915
673.14331	0.72883
671.21453	0.73666
669.28575	0.74670
667.35697	0.76105
665.42820	0.76873
663.49942	0.77152
661.57064	0.77328
659.64186	0.77498
657.71309	0.77829
655.78431	0.78266
653.85553	0.78577
651.92675	0.78729
649.99798	0.78811
648.06920	0.78980
646.14042	0.79472
644.21164	0.80279
642.28287	0.80976
640.35409	0.81045
638.42531	0.80437
636.49654	0.79622
634.56776	0.78936
632.63898	0.78607
630.71020	0.78911
628.78143	0.79562
626.85265	0.80189
624.92387	0.81065
622.99509	0.82183
621.06632	0.82830
619.13754	0.82658
617.20876	0.82152
615.27998	0.81920
613.35121	0.82029
611.42243	0.82293
609.49365	0.82668
607.56487	0.83075
605.63610	0.83280
603.70732	0.83244
601.77854	0.83224
599.84977	0.83389
597.92099	0.83693
595.99221	0.83955
594.06343	0.83941
592.13466	0.83634
590.20588	0.83290
588.27710	0.83234
586.34832	0.83388
584.41955	0.83347
582.49077	0.83284
580.56199	0.83668
578.63321	0.84119
576.70444	0.83752
574.77566	0.82756
572.84688	0.82351
570.91810	0.82808
568.98933	0.83365
567.06055	0.83315
565.13177	0.82573
563.20299	0.81789
561.27422	0.81676
559.34544	0.82222
557.41666	0.83098
555.48789	0.84371
553.55911	0.85274
551.63033	0.84284
549.70155	0.81351
547.77278	0.78326
545.84400	0.77651
543.91522	0.80262
541.98644	0.84676
540.05767	0.87187
538.12889	0.84533
536.20011	0.78683
534.27133	0.73533
532.34256	0.71721
530.41378	0.74626
528.48500	0.80322
526.55622	0.80623
524.62745	0.71891
522.69867	0.65394
520.76989	0.68729
518.84112	0.80757
516.91234	0.80064
514.98356	0.61259
513.05478	0.51044
511.12601	0.54069
509.19723	0.69527
507.26845	0.81103
505.33967	0.66323
503.41090	0.49910
501.48212	0.46011
499.55334	0.63543
497.62456	1.29187
495.69579	1.15083
493.76701	0.44148
491.83823	0.26263
489.90945	0.27616
487.98068	0.51025
486.05190	0.99909
484.12312	0.77132
482.19434	0.47140
480.26557	0.18951
478.33679	0.04888
476.40801	0.00619
474.47924	-0.01916
472.55046	0.01687
470.62168	-0.15706
468.69290	12.35336
466.76413	0.19278
464.83535	0.07548
462.90657	0.10863
460.97779	0.25400
459.04902	0.35408
457.12024	0.23493
455.19146	0.14265
453.26268	0.12477
451.33391	0.17493
449.40513	-0.23829
