3996.42673	0.97422
3994.49795	0.97412
3992.56918	0.97451
3990.64040	0.97477
3988.71162	0.97455
3986.78284	0.97430
3984.85407	0.97417
3982.92529	0.97411
3980.99651	0.97426
3979.06773	0.97446
3977.13896	0.97452
3975.21018	0.97468
3973.28140	0.97501
3971.35262	0.97509
3969.42385	0.97467
3967.49507	0.97408
3965.56629	0.97354
3963.63752	0.97297
3961.70874	0.97278
3959.77996	0.97332
3957.85118	0.97408
3955.92241	0.97454
3953.99363	0.97473
3952.06485	0.97471
3950.13607	0.97469
3948.20730	0.97490
3946.27852	0.97494
3944.34974	0.97480
3942.42096	0.97479
3940.49219	0.97460
3938.56341	0.97404
3936.63463	0.97360
3934.70585	0.97362
3932.77708	0.97386
3930.84830	0.97419
3928.91952	0.97438
3926.99075	0.97415
3925.06197	0.97396
3923.13319	0.97405
3921.20441	0.97389
3919.27564	0.97355
3917.34686	0.97352
3915.41808	0.97378
3913.48930	0.97413
3911.56053	0.97453
3909.63175	0.97456
3907.70297	0.97391
3905.77419	0.97320
3903.84542	0.97310
3901.91664	0.97344
3899.98786	0.97390
3898.05908	0.97420
3896.13031	0.97398
3894.20153	0.97364
3892.27275	0.97386
3890.34397	0.97420
3888.41520	0.97389
3886.48642	0.97364
3884.55764	0.97395
3882.62887	0.97404
3880.70009	0.97420
3878.77131	0.97463
3876.84253	0.97444
3874.91376	0.97390
3872.98498	0.97374
3871.05620	0.97399
3869.12742	0.97428
3867.19865	0.97419
3865.26987	0.97405
3863.34109	0.97427
3861.41231	0.97459
3859.48354	0.97468
3857.55476	0.97431
3855.62598	0.97359
3853.69720	0.97359
3851.76843	0.97447
3849.83965	0.97484
3847.91087	0.97482
3845.98210	0.97452
3844.05332	0.97407
3842.12454	0.97376
3840.19576	0.97365
3838.26699	0.97392
3836.33821	0.97440
3834.40943	0.97445
3832.48065	0.97438
3830.55188	0.97462
3828.62310	0.97493
3826.69432	0.97511
3824.76554	0.97499
3822.83677	0.97448
3820.90799	0.97380
3818.97921	0.97306
3817.05043	0.97299
3815.12166	0.97390
3813.19288	0.97424
3811.26410	0.97387
3809.33533	0.97364
3807.40655	0.97389
3805.47777	0.97419
3803.54899	0.97377
3801.62022	0.97333
3799.69144	0.97336
3797.76266	0.97331
3795.83388	0.97362
3793.90511	0.97420
3791.97633	0.97453
3790.04755	0.97468
3788.11877	0.97470
3786.19000	0.97450
3784.26122	0.97422
3782.33244	0.97397
3780.40366	0.97382
3778.47489	0.97381
3776.54611	0.97370
3774.61733	0.97328
3772.68855	0.97271
3770.75978	0.97276
3768.83100	0.97361
3766.90222	0.97394
3764.97345	0.97365
3763.04467	0.97342
3761.11589	0.97317
3759.18711	0.97291
3757.25834	0.97267
3755.32956	0.97207
3753.40078	0.97125
3751.47200	0.97149
3749.54323	0.97336
3747.61445	0.97439
3745.68567	0.97401
3743.75689	0.97344
3741.82812	0.97344
3739.89934	0.97356
3737.97056	0.97369
3736.04178	0.97365
3734.11301	0.97341
3732.18423	0.97357
3730.25545	0.97376
3728.32668	0.97377
3726.39790	0.97380
3724.46912	0.97371
3722.54034	0.97368
3720.61157	0.97397
3718.68279	0.97422
3716.75401	0.97404
3714.82523	0.97336
3712.89646	0.97275
3710.96768	0.97322
3709.03890	0.97422
3707.11012	0.97452
3705.18135	0.97407
3703.25257	0.97350
3701.32379	0.97362
3699.39501	0.97426
3697.46624	0.97462
3695.53746	0.97445
3693.60868	0.97394
3691.67990	0.97365
3689.75113	0.97443
3687.82235	0.97537
3685.89357	0.97503
3683.96480	0.97430
3682.03602	0.97412
3680.10724	0.97422
3678.17846	0.97387
3676.24969	0.97374
3674.32091	0.97460
3672.39213	0.97498
3670.46335	0.97531
3668.53458	0.97622
3666.60580	0.97638
3664.67702	0.97583
3662.74824	0.97533
3660.81947	0.97506
3658.89069	0.97494
3656.96191	0.97509
3655.03313	0.97520
3653.10436	0.97490
3651.17558	0.97490
3649.24680	0.97574
3647.31803	0.97613
3645.38925	0.97580
3643.46047	0.97543
3641.53169	0.97525
3639.60292	0.97522
3637.67414	0.97502
3635.74536	0.97484
3633.81658	0.97496
3631.88781	0.97462
3629.95903	0.97379
3628.03025	0.97411
3626.10147	0.97479
3624.17270	0.97474
3622.24392	0.97462
3620.31514	0.97498
3618.38636	0.97565
3616.45759	0.97570
3614.52881	0.97529
3612.60003	0.97499
3610.67125	0.97437
3608.74248	0.97369
3606.81370	0.97378
3604.88492	0.97400
3602.95615	0.97376
3601.02737	0.97383
3599.09859	0.97438
3597.16981	0.97456
3595.24104	0.97464
3593.31226	0.97485
3591.38348	0.97447
3589.45470	0.97373
3587.52593	0.97384
3585.59715	0.97473
3583.66837	0.97492
3581.73959	0.97453
3579.81082	0.97445
3577.88204	0.97459
3575.95326	0.97468
3574.02448	0.97510
3572.09571	0.97553
3570.16693	0.97522
3568.23815	0.97465
3566.30938	0.97472
3564.38060	0.97476
3562.45182	0.97446
3560.52304	0.97445
3558.59427	0.97465
3556.66549	0.97458
3554.73671	0.97437
3552.80793	0.97441
3550.87916	0.97453
3548.95038	0.97459
3547.02160	0.97487
3545.09282	0.97515
3543.16405	0.97527
3541.23527	0.97558
3539.30649	0.97595
3537.37771	0.97609
3535.44894	0.97592
3533.52016	0.97545
3531.59138	0.97487
3529.66260	0.97439
3527.73383	0.97428
3525.80505	0.97452
3523.87627	0.97486
3521.94750	0.97510
3520.01872	0.97500
3518.08994	0.97478
3516.16116	0.97473
3514.23239	0.97464
3512.30361	0.97467
3510.37483	0.97517
3508.44605	0.97552
3506.51728	0.97512
3504.58850	0.97433
3502.65972	0.97362
3500.73094	0.97338
3498.80217	0.97379
3496.87339	0.97461
3494.94461	0.97506
3493.01583	0.97485
3491.08706	0.97439
3489.15828	0.97396
3487.22950	0.97386
3485.30073	0.97443
3483.37195	0.97516
3481.44317	0.97530
3479.51439	0.97489
3477.58562	0.97451
3475.65684	0.97430
3473.72806	0.97398
3471.79928	0.97358
3469.87051	0.97347
3467.94173	0.97372
3466.01295	0.97395
3464.08417	0.97388
3462.15540	0.97385
3460.22662	0.97399
3458.29784	0.97399
3456.36906	0.97394
3454.44029	0.97405
3452.51151	0.97413
3450.58273	0.97411
3448.65396	0.97442
3446.72518	0.97507
3444.79640	0.97525
3442.86762	0.97472
3440.93885	0.97392
3439.01007	0.97348
3437.08129	0.97371
3435.15251	0.97400
3433.22374	0.97413
3431.29496	0.97459
3429.36618	0.97504
3427.43740	0.97486
3425.50863	0.97453
3423.57985	0.97487
3421.65107	0.97549
3419.72229	0.97546
3417.79352	0.97476
3415.86474	0.97385
3413.93596	0.97326
3412.00718	0.97321
3410.07841	0.97318
3408.14963	0.97315
3406.22085	0.97338
3404.29208	0.97354
3402.36330	0.97360
3400.43452	0.97374
3398.50574	0.97380
3396.57697	0.97381
3394.64819	0.97400
3392.71941	0.97437
3390.79063	0.97454
3388.86186	0.97425
3386.93308	0.97400
3385.00430	0.97403
3383.07552	0.97381
3381.14675	0.97338
3379.21797	0.97328
3377.28919	0.97349
3375.36041	0.97362
3373.43164	0.97354
3371.50286	0.97357
3369.57408	0.97396
3367.64531	0.97441
3365.71653	0.97447
3363.78775	0.97409
3361.85897	0.97364
3359.93020	0.97351
3358.00142	0.97373
3356.07264	0.97400
3354.14386	0.97419
3352.21509	0.97410
3350.28631	0.97374
3348.35753	0.97350
3346.42875	0.97353
3344.49998	0.97370
3342.57120	0.97389
3340.64242	0.97414
3338.71364	0.97451
3336.78487	0.97472
3334.85609	0.97442
3332.92731	0.97367
3330.99853	0.97308
3329.06976	0.97326
3327.14098	0.97395
3325.21220	0.97442
3323.28343	0.97450
3321.35465	0.97430
3319.42587	0.97378
3317.49709	0.97334
3315.56832	0.97351
3313.63954	0.97405
3311.71076	0.97443
3309.78198	0.97456
3307.85321	0.97438
3305.92443	0.97392
3303.99565	0.97361
3302.06687	0.97357
3300.13810	0.97364
3298.20932	0.97393
3296.28054	0.97425
3294.35176	0.97435
3292.42299	0.97443
3290.49421	0.97450
3288.56543	0.97440
3286.63666	0.97416
3284.70788	0.97389
3282.77910	0.97372
3280.85032	0.97373
3278.92155	0.97381
3276.99277	0.97399
3275.06399	0.97435
3273.13521	0.97451
3271.20644	0.97425
3269.27766	0.97404
3267.34888	0.97421
3265.42010	0.97437
3263.49133	0.97411
3261.56255	0.97375
3259.63377	0.97393
3257.70499	0.97449
3255.77622	0.97457
3253.84744	0.97430
3251.91866	0.97432
3249.98988	0.97451
3248.06111	0.97455
3246.13233	0.97448
3244.20355	0.97440
3242.27478	0.97437
3240.34600	0.97438
3238.41722	0.97437
3236.48844	0.97426
3234.55967	0.97422
3232.63089	0.97451
3230.70211	0.97481
3228.77333	0.97458
3226.84456	0.97403
3224.91578	0.97380
3222.98700	0.97406
3221.05822	0.97431
3219.12945	0.97409
3217.20067	0.97346
3215.27189	0.97295
3213.34311	0.97291
3211.41434	0.97309
3209.48556	0.97315
3207.55678	0.97328
3205.62801	0.97358
3203.69923	0.97383
3201.77045	0.97406
3199.84167	0.97422
3197.91290	0.97401
3195.98412	0.97370
3194.05534	0.97364
3192.12656	0.97361
3190.19779	0.97359
3188.26901	0.97366
3186.34023	0.97344
3184.41145	0.97299
3182.48268	0.97290
3180.55390	0.97321
3178.62512	0.97358
3176.69634	0.97397
3174.76757	0.97423
3172.83879	0.97414
3170.91001	0.97395
3168.98123	0.97395
3167.05246	0.97392
3165.12368	0.97367
3163.19490	0.97329
3161.26613	0.97296
3159.33735	0.97303
3157.40857	0.97352
3155.47979	0.97380
3153.55102	0.97356
3151.62224	0.97321
3149.69346	0.97311
3147.76468	0.97333
3145.83591	0.97367
3143.90713	0.97387
3141.97835	0.97383
3140.04957	0.97367
3138.12080	0.97360
3136.19202	0.97355
3134.26324	0.97332
3132.33446	0.97312
3130.40569	0.97321
3128.47691	0.97355
3126.54813	0.97389
3124.61936	0.97405
3122.69058	0.97402
3120.76180	0.97396
3118.83302	0.97397
3116.90425	0.97413
3114.97547	0.97433
3113.04669	0.97423
3111.11791	0.97401
3109.18914	0.97413
3107.26036	0.97443
3105.33158	0.97438
3103.40280	0.97413
3101.47403	0.97405
3099.54525	0.97405
3097.61647	0.97403
3095.68769	0.97415
3093.75892	0.97438
3091.83014	0.97452
3089.90136	0.97455
3087.97258	0.97455
3086.04381	0.97459
3084.11503	0.97458
3082.18625	0.97441
3080.25748	0.97421
3078.32870	0.97417
3076.39992	0.97412
3074.47114	0.97396
3072.54237	0.97386
3070.61359	0.97384
3068.68481	0.97381
3066.75603	0.97369
3064.82726	0.97353
3062.89848	0.97347
3060.96970	0.97366
3059.04092	0.97397
3057.11215	0.97394
3055.18337	0.97362
3053.25459	0.97354
3051.32581	0.97373
3049.39704	0.97401
3047.46826	0.97433
3045.53948	0.97463
3043.61071	0.97479
3041.68193	0.97461
3039.75315	0.97425
3037.82437	0.97407
3035.89560	0.97413
3033.96682	0.97418
3032.03804	0.97418
3030.10926	0.97424
3028.18049	0.97406
3026.25171	0.97360
3024.32293	0.97332
3022.39415	0.97333
3020.46538	0.97345
3018.53660	0.97362
3016.60782	0.97351
3014.67904	0.97310
3012.75027	0.97301
3010.82149	0.97305
3008.89271	0.97260
3006.96394	0.97209
3005.03516	0.97187
3003.10638	0.97151
3001.17760	0.97089
2999.24883	0.97022
2997.32005	0.96940
2995.39127	0.96832
2993.46249	0.96718
2991.53372	0.96594
2989.60494	0.96415
2987.67616	0.96187
2985.74738	0.95928
2983.81861	0.95588
2981.88983	0.95130
2979.96105	0.94568
2978.03227	0.93886
2976.10350	0.93006
2974.17472	0.91865
2972.24594	0.90477
2970.31716	0.88828
2968.38839	0.86876
2966.45961	0.84689
2964.53083	0.82432
2962.60206	0.80344
2960.67328	0.78690
2958.74450	0.77536
2956.81572	0.76662
2954.88695	0.75759
2952.95817	0.74750
2951.02939	0.73998
2949.10061	0.74086
2947.17184	0.75369
2945.24306	0.77695
2943.31428	0.80371
2941.38550	0.82551
2939.45673	0.83768
2937.52795	0.83991
2935.59917	0.83361
2933.67039	0.82060
2931.74162	0.80267
2929.81284	0.78193
2927.88406	0.76090
2925.95529	0.74132
2924.02651	0.72313
2922.09773	0.70587
2920.16895	0.69053
2918.24018	0.67995
2916.31140	0.67740
2914.38262	0.68362
2912.45384	0.69564
2910.52507	0.70914
2908.59629	0.72159
2906.66751	0.73321
2904.73873	0.74528
2902.80996	0.75827
2900.88118	0.77170
2898.95240	0.78503
2897.02362	0.79774
2895.09485	0.80888
2893.16607	0.81744
2891.23729	0.82308
2889.30851	0.82612
2887.37974	0.82685
2885.45096	0.82564
2883.52218	0.82287
2881.59341	0.81854
2879.66463	0.81330
2877.73585	0.80939
2875.80707	0.80847
2873.87830	0.80919
2871.94952	0.80866
2870.02074	0.80606
2868.09196	0.80390
2866.16319	0.80683
2864.23441	0.81844
2862.30563	0.83743
2860.37685	0.85766
2858.44808	0.87302
2856.51930	0.88138
2854.59052	0.88359
2852.66174	0.88140
2850.73297	0.87677
2848.80419	0.87070
2846.87541	0.86241
2844.94664	0.85066
2843.01786	0.83556
2841.08908	0.81945
2839.16030	0.80690
2837.23153	0.80340
2835.30275	0.81225
2833.37397	0.83159
2831.44519	0.85508
2829.51642	0.87652
2827.58764	0.89314
2825.65886	0.90500
2823.73008	0.91330
2821.80131	0.91940
2819.87253	0.92415
2817.94375	0.92791
2816.01497	0.93090
2814.08620	0.93330
2812.15742	0.93521
2810.22864	0.93696
2808.29986	0.93892
2806.37109	0.94102
2804.44231	0.94311
2802.51353	0.94523
2800.58476	0.94718
2798.65598	0.94848
2796.72720	0.94921
2794.79842	0.94996
2792.86965	0.95099
2790.94087	0.95205
2789.01209	0.95311
2787.08331	0.95428
2785.15454	0.95547
2783.22576	0.95645
2781.29698	0.95713
2779.36820	0.95763
2777.43943	0.95815
2775.51065	0.95865
2773.58187	0.95905
2771.65309	0.95939
2769.72432	0.95963
2767.79554	0.95984
2765.86676	0.96021
2763.93799	0.96059
2762.00921	0.96078
2760.08043	0.96099
2758.15165	0.96127
2756.22288	0.96146
2754.29410	0.96149
2752.36532	0.96157
2750.43654	0.96182
2748.50777	0.96194
2746.57899	0.96178
2744.65021	0.96160
2742.72143	0.96157
2740.79266	0.96150
2738.86388	0.96120
2736.93510	0.96069
2735.00632	0.96014
2733.07755	0.95974
2731.14877	0.95935
2729.21999	0.95877
2727.29121	0.95808
2725.36244	0.95721
2723.43366	0.95635
2721.50488	0.95619
2719.57611	0.95687
2717.64733	0.95785
2715.71855	0.95881
2713.78977	0.95973
2711.86100	0.96059
2709.93222	0.96136
2708.00344	0.96193
2706.07466	0.96237
2704.14589	0.96269
2702.21711	0.96288
2700.28833	0.96309
2698.35955	0.96332
2696.43078	0.96352
2694.50200	0.96360
2692.57322	0.96353
2690.64444	0.96354
2688.71567	0.96362
2686.78689	0.96363
2684.85811	0.96365
2682.92934	0.96372
2681.00056	0.96373
2679.07178	0.96370
2677.14300	0.96354
2675.21423	0.96327
2673.28545	0.96312
2671.35667	0.96329
2669.42789	0.96350
2667.49912	0.96356
2665.57034	0.96359
2663.64156	0.96360
2661.71278	0.96358
2659.78401	0.96362
2657.85523	0.96348
2655.92645	0.96318
2653.99767	0.96322
2652.06890	0.96372
2650.14012	0.96422
2648.21134	0.96433
2646.28257	0.96420
2644.35379	0.96423
2642.42501	0.96437
2640.49623	0.96441
2638.56746	0.96446
2636.63868	0.96467
2634.70990	0.96483
2632.78112	0.96479
2630.85235	0.96473
2628.92357	0.96482
2626.99479	0.96494
2625.06601	0.96499
2623.13724	0.96505
2621.20846	0.96507
2619.27968	0.96502
2617.35090	0.96511
2615.42213	0.96528
2613.49335	0.96530
2611.56457	0.96527
2609.63579	0.96533
2607.70702	0.96536
2605.77824	0.96536
2603.84946	0.96547
2601.92069	0.96573
2599.99191	0.96611
2598.06313	0.96653
2596.13435	0.96687
2594.20558	0.96703
2592.27680	0.96698
2590.34802	0.96676
2588.41924	0.96641
2586.49047	0.96591
2584.56169	0.96552
2582.63291	0.96559
2580.70413	0.96599
2578.77536	0.96617
2576.84658	0.96605
2574.91780	0.96603
2572.98902	0.96616
2571.06025	0.96627
2569.13147	0.96639
2567.20269	0.96668
2565.27392	0.96714
2563.34514	0.96750
2561.41636	0.96754
2559.48758	0.96760
2557.55881	0.96799
2555.63003	0.96839
2553.70125	0.96858
2551.77247	0.96875
2549.84370	0.96884
2547.91492	0.96846
2545.98614	0.96790
2544.05736	0.96780
2542.12859	0.96810
2540.19981	0.96869
2538.27103	0.96937
2536.34225	0.96956
2534.41348	0.96934
2532.48470	0.96919
2530.55592	0.96913
2528.62714	0.96908
2526.69837	0.96916
2524.76959	0.96939
2522.84081	0.96955
2520.91204	0.96942
2518.98326	0.96925
2517.05448	0.96939
2515.12570	0.96964
2513.19693	0.96985
2511.26815	0.97008
2509.33937	0.97007
2507.41059	0.96996
2505.48182	0.97006
2503.55304	0.97001
2501.62426	0.96961
2499.69548	0.96939
2497.76671	0.96947
2495.83793	0.96959
2493.90915	0.96967
2491.98037	0.96971
2490.05160	0.96972
2488.12282	0.96971
2486.19404	0.96959
2484.26527	0.96936
2482.33649	0.96940
2480.40771	0.96995
2478.47893	0.97051
2476.55016	0.97056
2474.62138	0.97027
2472.69260	0.97012
2470.76382	0.97017
2468.83505	0.97021
2466.90627	0.97023
2464.97749	0.97030
2463.04871	0.97039
2461.11994	0.97037
2459.19116	0.97018
2457.26238	0.96983
2455.33360	0.96940
2453.40483	0.96915
2451.47605	0.96924
2449.54727	0.96953
2447.61849	0.96968
2445.68972	0.96957
2443.76094	0.96954
2441.83216	0.96984
2439.90339	0.97015
2437.97461	0.97006
2436.04583	0.96983
2434.11705	0.96986
2432.18828	0.96992
2430.25950	0.96989
2428.33072	0.97001
2426.40194	0.97036
2424.47317	0.97066
2422.54439	0.97069
2420.61561	0.97064
2418.68683	0.97052
2416.75806	0.97014
2414.82928	0.96978
2412.90050	0.96965
2410.97172	0.96949
2409.04295	0.96940
2407.11417	0.96976
2405.18539	0.97028
2403.25662	0.97054
2401.32784	0.97056
2399.39906	0.97042
2397.47028	0.97019
2395.54151	0.97011
2393.61273	0.97040
2391.68395	0.97077
2389.75517	0.97068
2387.82640	0.97015
2385.89762	0.96975
2383.96884	0.96967
2382.04006	0.96952
2380.11129	0.96920
2378.18251	0.96891
2376.25373	0.96862
2374.32495	0.96805
2372.39618	0.96717
2370.46740	0.96658
2368.53862	0.96672
2366.60984	0.96698
2364.68107	0.96603
2362.75229	0.96372
2360.82351	0.96227
2358.89474	0.96322
2356.96596	0.96530
2355.03718	0.96633
2353.10840	0.96625
2351.17963	0.96624
2349.25085	0.96637
2347.32207	0.96619
2345.39329	0.96548
2343.46452	0.96482
2341.53574	0.96517
2339.60696	0.96602
2337.67818	0.96627
2335.74941	0.96619
2333.82063	0.96662
2331.89185	0.96755
2329.96307	0.96783
2328.03430	0.96669
2326.10552	0.96539
2324.17674	0.96544
2322.24797	0.96651
2320.31919	0.96735
2318.39041	0.96761
2316.46163	0.96770
2314.53286	0.96772
2312.60408	0.96758
2310.67530	0.96770
2308.74652	0.96817
2306.81775	0.96841
2304.88897	0.96832
2302.96019	0.96818
2301.03141	0.96816
2299.10264	0.96828
2297.17386	0.96847
2295.24508	0.96848
2293.31630	0.96808
2291.38753	0.96746
2289.45875	0.96714
2287.52997	0.96734
2285.60120	0.96777
2283.67242	0.96820
2281.74364	0.96886
2279.81486	0.96950
2277.88609	0.96954
2275.95731	0.96926
2274.02853	0.96919
2272.09975	0.96926
2270.17098	0.96926
2268.24220	0.96913
2266.31342	0.96911
2264.38464	0.96938
2262.45587	0.96955
2260.52709	0.96928
2258.59831	0.96884
2256.66953	0.96878
2254.74076	0.96922
2252.81198	0.96956
2250.88320	0.96972
2248.95442	0.97001
2247.02565	0.97009
2245.09687	0.96989
2243.16809	0.96977
2241.23932	0.96964
2239.31054	0.96926
2237.38176	0.96878
2235.45298	0.96880
2233.52421	0.96929
2231.59543	0.96977
2229.66665	0.97008
2227.73787	0.96979
2225.80910	0.96897
2223.88032	0.96902
2221.95154	0.97022
2220.02276	0.97076
2218.09399	0.97000
2216.16521	0.96926
2214.23643	0.96926
2212.30765	0.96947
2210.37888	0.96938
2208.45010	0.96934
2206.52132	0.96949
2204.59255	0.96938
2202.66377	0.96919
2200.73499	0.96931
2198.80621	0.96959
2196.87744	0.96973
2194.94866	0.96979
2193.01988	0.96983
2191.09110	0.96933
2189.16233	0.96855
2187.23355	0.96849
2185.30477	0.96887
2183.37599	0.96915
2181.44722	0.96946
2179.51844	0.96953
2177.58966	0.96936
2175.66088	0.96946
2173.73211	0.96925
2171.80333	0.96799
2169.87455	0.96678
2167.94577	0.96648
2166.01700	0.96615
2164.08822	0.96530
2162.15944	0.96551
2160.23067	0.96852
2158.30189	0.97247
2156.37311	0.97455
2154.44433	0.97491
2152.51556	0.97432
2150.58678	0.97364
2148.65800	0.97362
2146.72922	0.97401
2144.80045	0.97435
2142.87167	0.97451
2140.94289	0.97425
2139.01411	0.97381
2137.08534	0.97362
2135.15656	0.97404
2133.22778	0.97495
2131.29900	0.97511
2129.37023	0.97443
2127.44145	0.97406
2125.51267	0.97375
2123.58390	0.97295
2121.65512	0.97225
2119.72634	0.97198
2117.79756	0.97168
2115.86879	0.97120
2113.94001	0.97073
2112.01123	0.97057
2110.08245	0.97100
2108.15368	0.97170
2106.22490	0.97206
2104.29612	0.97212
2102.36734	0.97220
2100.43857	0.97214
2098.50979	0.97187
2096.58101	0.97194
2094.65223	0.97203
2092.72346	0.97142
2090.79468	0.97072
2088.86590	0.97040
2086.93712	0.97025
2085.00835	0.97043
2083.07957	0.97089
2081.15079	0.97107
2079.22202	0.97068
2077.29324	0.97004
2075.36446	0.96986
2073.43568	0.97014
2071.50691	0.97015
2069.57813	0.96995
2067.64935	0.97007
2065.72057	0.97028
2063.79180	0.97002
2061.86302	0.96968
2059.93424	0.97014
2058.00546	0.97102
2056.07669	0.97127
2054.14791	0.97041
2052.21913	0.96918
2050.29035	0.96901
2048.36158	0.96990
2046.43280	0.97073
2044.50402	0.97105
2042.57525	0.97078
2040.64647	0.97017
2038.71769	0.96990
2036.78891	0.97012
2034.86014	0.97048
2032.93136	0.97065
2031.00258	0.97040
2029.07380	0.97016
2027.14503	0.97058
2025.21625	0.97141
2023.28747	0.97165
2021.35869	0.97096
2019.42992	0.97038
2017.50114	0.97094
2015.57236	0.97184
2013.64358	0.97142
2011.71481	0.96998
2009.78603	0.96967
2007.85725	0.97111
2005.92847	0.97225
2003.99970	0.97216
2002.07092	0.97201
2000.14214	0.97223
1998.21337	0.97210
1996.28459	0.97166
1994.35581	0.97170
1992.42703	0.97206
1990.49826	0.97180
1988.56948	0.97097
1986.64070	0.97022
1984.71192	0.96988
1982.78315	0.96957
1980.85437	0.96885
1978.92559	0.96877
1976.99681	0.96989
1975.06804	0.97088
1973.13926	0.97143
1971.21048	0.97248
1969.28170	0.97373
1967.35293	0.97362
1965.42415	0.97208
1963.49537	0.97108
1961.56660	0.97179
1959.63782	0.97306
1957.70904	0.97344
1955.78026	0.97308
1953.85149	0.97271
1951.92271	0.97250
1949.99393	0.97234
1948.06515	0.97242
1946.13638	0.97299
1944.20760	0.97353
1942.27882	0.97347
1940.35004	0.97310
1938.42127	0.97280
1936.49249	0.97273
1934.56371	0.97273
1932.63493	0.97236
1930.70616	0.97194
1928.77738	0.97219
1926.84860	0.97279
1924.91983	0.97281
1922.99105	0.97223
1921.06227	0.97185
1919.13349	0.97187
1917.20472	0.97207
1915.27594	0.97225
1913.34716	0.97229
1911.41838	0.97220
1909.48961	0.97222
1907.56083	0.97238
1905.63205	0.97221
1903.70327	0.97167
1901.77450	0.97131
1899.84572	0.97123
1897.91694	0.97108
1895.98816	0.97097
1894.05939	0.97125
1892.13061	0.97164
1890.20183	0.97171
1888.27305	0.97152
1886.34428	0.97129
1884.41550	0.97129
1882.48672	0.97156
1880.55795	0.97177
1878.62917	0.97176
1876.70039	0.97168
1874.77161	0.97158
1872.84284	0.97126
1870.91406	0.97103
1868.98528	0.97134
1867.05650	0.97172
1865.12773	0.97168
1863.19895	0.97145
1861.27017	0.97128
1859.34139	0.97118
1857.41262	0.97109
1855.48384	0.97108
1853.55506	0.97107
1851.62628	0.97095
1849.69751	0.97070
1847.76873	0.97034
1845.83995	0.97004
1843.91118	0.97048
1841.98240	0.97118
1840.05362	0.97114
1838.12484	0.97077
1836.19607	0.97076
1834.26729	0.97089
1832.33851	0.97100
1830.40973	0.97123
1828.48096	0.97134
1826.55218	0.97113
1824.62340	0.97089
1822.69462	0.97074
1820.76585	0.97073
1818.83707	0.97100
1816.90829	0.97134
1814.97951	0.97123
1813.05074	0.97074
1811.12196	0.97044
1809.19318	0.97061
1807.26440	0.97088
1805.33563	0.97089
1803.40685	0.97073
1801.47807	0.97058
1799.54930	0.97057
1797.62052	0.97060
1795.69174	0.97052
1793.76296	0.97041
1791.83419	0.97045
1789.90541	0.97042
1787.97663	0.97020
1786.04785	0.97009
1784.11908	0.97008
1782.19030	0.96990
1780.26152	0.96973
1778.33274	0.96974
1776.40397	0.96969
1774.47519	0.96954
1772.54641	0.96948
1770.61763	0.96964
1768.68886	0.96984
1766.76008	0.96985
1764.83130	0.96960
1762.90253	0.96930
1760.97375	0.96911
1759.04497	0.96899
1757.11619	0.96902
1755.18742	0.96910
1753.25864	0.96897
1751.32986	0.96874
1749.40108	0.96860
1747.47231	0.96850
1745.54353	0.96823
1743.61475	0.96771
1741.68597	0.96717
1739.75720	0.96690
1737.82842	0.96670
1735.89964	0.96633
1733.97086	0.96597
1732.04209	0.96562
1730.11331	0.96522
1728.18453	0.96500
1726.25575	0.96475
1724.32698	0.96431
1722.39820	0.96381
1720.46942	0.96331
1718.54065	0.96305
1716.61187	0.96358
1714.68309	0.96436
1712.75431	0.96471
1710.82554	0.96489
1708.89676	0.96501
1706.96798	0.96516
1705.03920	0.96536
1703.11043	0.96536
1701.18165	0.96547
1699.25287	0.96587
1697.32409	0.96600
1695.39532	0.96634
1693.46654	0.96661
1691.53776	0.96648
1689.60898	0.96628
1687.68021	0.96591
1685.75143	0.96544
1683.82265	0.96590
1681.89388	0.96654
1679.96510	0.96641
1678.03632	0.96614
1676.10754	0.96619
1674.17877	0.96651
1672.24999	0.96659
1670.32121	0.96659
1668.39243	0.96682
1666.46366	0.96683
1664.53488	0.96658
1662.60610	0.96647
1660.67732	0.96660
1658.74855	0.96662
1656.81977	0.96635
1654.89099	0.96592
1652.96221	0.96610
1651.03344	0.96638
1649.10466	0.96596
1647.17588	0.96588
1645.24710	0.96652
1643.31833	0.96673
1641.38955	0.96649
1639.46077	0.96612
1637.53200	0.96574
1635.60322	0.96589
1633.67444	0.96638
1631.74566	0.96643
1629.81689	0.96629
1627.88811	0.96623
1625.95933	0.96618
1624.03055	0.96618
1622.10178	0.96631
1620.17300	0.96629
1618.24422	0.96626
1616.31544	0.96658
1614.38667	0.96676
1612.45789	0.96661
1610.52911	0.96656
1608.60033	0.96666
1606.67156	0.96666
1604.74278	0.96644
1602.81400	0.96622
1600.88523	0.96620
1598.95645	0.96634
1597.02767	0.96653
1595.09889	0.96676
1593.17012	0.96691
1591.24134	0.96692
1589.31256	0.96691
1587.38378	0.96689
1585.45501	0.96672
1583.52623	0.96658
1581.59745	0.96663
1579.66867	0.96663
1577.73990	0.96653
1575.81112	0.96671
1573.88234	0.96683
1571.95356	0.96666
1570.02479	0.96671
1568.09601	0.96694
1566.16723	0.96692
1564.23845	0.96665
1562.30968	0.96619
1560.38090	0.96603
1558.45212	0.96703
1556.52335	0.96736
1554.59457	0.96696
1552.66579	0.96673
1550.73701	0.96667
1548.80824	0.96666
1546.87946	0.96643
1544.95068	0.96601
1543.02190	0.96576
1541.09313	0.96610
1539.16435	0.96683
1537.23557	0.96687
1535.30679	0.96666
1533.37802	0.96683
1531.44924	0.96694
1529.52046	0.96658
1527.59168	0.96620
1525.66291	0.96608
1523.73413	0.96603
1521.80535	0.96608
1519.87658	0.96616
1517.94780	0.96609
1516.01902	0.96619
1514.09024	0.96622
1512.16147	0.96592
1510.23269	0.96536
1508.30391	0.96480
1506.37513	0.96511
1504.44636	0.96546
1502.51758	0.96523
1500.58880	0.96478
1498.66002	0.96419
1496.73125	0.96334
1494.80247	0.96228
1492.87369	0.96136
1490.94491	0.96081
1489.01614	0.96066
1487.08736	0.96017
1485.15858	0.95910
1483.22981	0.95751
1481.30103	0.95530
1479.37225	0.95234
1477.44347	0.94798
1475.51470	0.94101
1473.58592	0.92909
1471.65714	0.91213
1469.72836	0.89604
1467.79959	0.88028
1465.87081	0.86034
1463.94203	0.83870
1462.01325	0.82393
1460.08448	0.81536
1458.15570	0.80939
1456.22692	0.80622
1454.29814	0.80569
1452.36937	0.80756
1450.44059	0.81420
1448.51181	0.82919
1446.58303	0.85114
1444.65426	0.87167
1442.72548	0.88719
1440.79670	0.89705
1438.86793	0.90144
1436.93915	0.90364
1435.01037	0.90878
1433.08159	0.91791
1431.15282	0.92916
1429.22404	0.93922
1427.29526	0.94497
1425.36648	0.94790
1423.43771	0.94980
1421.50893	0.95095
1419.58015	0.95208
1417.65137	0.95360
1415.72260	0.95452
1413.79382	0.95476
1411.86504	0.95490
1409.93626	0.95513
1408.00749	0.95543
1406.07871	0.95585
1404.14993	0.95631
1402.22116	0.95646
1400.29238	0.95626
1398.36360	0.95609
1396.43482	0.95589
1394.50605	0.95531
1392.57727	0.95409
1390.64849	0.95198
1388.71971	0.94789
1386.79094	0.93902
1384.86216	0.92232
1382.93338	0.89395
1381.00460	0.84962
1379.07583	0.79374
1377.14705	0.74732
1375.21827	0.73784
1373.28949	0.77279
1371.36072	0.82266
1369.43194	0.86400
1367.50316	0.89175
1365.57438	0.90503
1363.64561	0.90802
1361.71683	0.90511
1359.78805	0.90151
1357.85928	0.90230
1355.93050	0.90906
1354.00172	0.91915
1352.07294	0.92835
1350.14417	0.93507
1348.21539	0.93977
1346.28661	0.94308
1344.35783	0.94536
1342.42906	0.94695
1340.50028	0.94815
1338.57150	0.94907
1336.64272	0.94950
1334.71395	0.94925
1332.78517	0.94843
1330.85639	0.94764
1328.92761	0.94763
1326.99884	0.94864
1325.07006	0.95033
1323.14128	0.95208
1321.21251	0.95343
1319.28373	0.95438
1317.35495	0.95506
1315.42617	0.95542
1313.49740	0.95543
1311.56862	0.95506
1309.63984	0.95385
1307.71106	0.95125
1305.78229	0.94800
1303.85351	0.94625
1301.92473	0.94671
1299.99595	0.94770
1298.06718	0.94805
1296.13840	0.94820
1294.20962	0.94876
1292.28084	0.94975
1290.35207	0.95087
1288.42329	0.95191
1286.49451	0.95280
1284.56573	0.95348
1282.63696	0.95396
1280.70818	0.95421
1278.77940	0.95430
1276.85063	0.95439
1274.92185	0.95453
1272.99307	0.95463
1271.06429	0.95453
1269.13552	0.95422
1267.20674	0.95383
1265.27796	0.95327
1263.34918	0.95235
1261.42041	0.95096
1259.49163	0.94897
1257.56285	0.94668
1255.63407	0.94546
1253.70530	0.94641
1251.77652	0.94874
1249.84774	0.95086
1247.91896	0.95218
1245.99019	0.95300
1244.06141	0.95369
1242.13263	0.95435
1240.20386	0.95495
1238.27508	0.95550
1236.34630	0.95594
1234.41752	0.95623
1232.48875	0.95645
1230.55997	0.95660
1228.63119	0.95657
1226.70241	0.95625
1224.77364	0.95562
1222.84486	0.95494
1220.91608	0.95451
1218.98730	0.95439
1217.05853	0.95465
1215.12975	0.95537
1213.20097	0.95631
1211.27219	0.95711
1209.34342	0.95780
1207.41464	0.95848
1205.48586	0.95894
1203.55708	0.95908
1201.62831	0.95915
1199.69953	0.95936
1197.77075	0.95960
1195.84198	0.95980
1193.91320	0.96001
1191.98442	0.96013
1190.05564	0.96012
1188.12687	0.95998
1186.19809	0.95969
1184.26931	0.95931
1182.34053	0.95883
1180.41176	0.95792
1178.48298	0.95611
1176.55420	0.95287
1174.62542	0.94740
1172.69665	0.93937
1170.76787	0.92997
1168.83909	0.92232
1166.91031	0.91950
1164.98154	0.92157
1163.05276	0.92596
1161.12398	0.93018
1159.19521	0.93317
1157.26643	0.93495
1155.33765	0.93608
1153.40887	0.93715
1151.48010	0.93872
1149.55132	0.94119
1147.62254	0.94433
1145.69376	0.94748
1143.76499	0.95015
1141.83621	0.95233
1139.90743	0.95426
1137.97865	0.95582
1136.04988	0.95671
1134.12110	0.95704
1132.19232	0.95709
1130.26354	0.95700
1128.33477	0.95688
1126.40599	0.95687
1124.47721	0.95689
1122.54844	0.95672
1120.61966	0.95646
1118.69088	0.95632
1116.76210	0.95630
1114.83333	0.95620
1112.90455	0.95574
1110.97577	0.95485
1109.04699	0.95366
1107.11822	0.95208
1105.18944	0.95017
1103.26066	0.94872
1101.33188	0.94870
1099.40311	0.95007
1097.47433	0.95175
1095.54555	0.95305
1093.61677	0.95422
1091.68800	0.95532
1089.75922	0.95608
1087.83044	0.95662
1085.90166	0.95707
1083.97289	0.95743
1082.04411	0.95781
1080.11533	0.95833
1078.18656	0.95894
1076.25778	0.95942
1074.32900	0.95965
1072.40022	0.95970
1070.47145	0.95977
1068.54267	0.95999
1066.61389	0.96017
1064.68511	0.96002
1062.75634	0.95947
1060.82756	0.95882
1058.89878	0.95838
1056.97000	0.95798
1055.04123	0.95727
1053.11245	0.95596
1051.18367	0.95401
1049.25489	0.95200
1047.32612	0.95052
1045.39734	0.94980
1043.46856	0.95006
1041.53979	0.95120
1039.61101	0.95255
1037.68223	0.95344
1035.75345	0.95370
1033.82468	0.95362
1031.89590	0.95335
1029.96712	0.95270
1028.03834	0.95153
1026.10957	0.94998
1024.18079	0.94837
1022.25201	0.94673
1020.32323	0.94534
1018.39446	0.94484
1016.46568	0.94546
1014.53690	0.94684
1012.60812	0.94835
1010.67935	0.94929
1008.75057	0.94914
1006.82179	0.94750
1004.89301	0.94375
1002.96424	0.93679
1001.03546	0.92626
999.10668	0.91574
997.17791	0.91231
995.24913	0.91880
993.32035	0.93018
991.39157	0.93988
989.46280	0.94568
987.53402	0.94863
985.60524	0.94968
983.67646	0.94870
981.74769	0.94501
979.81891	0.93772
977.89013	0.92621
975.96135	0.91204
974.03258	0.90090
972.10380	0.89983
970.17502	0.90996
968.24624	0.92452
966.31747	0.93635
964.38869	0.94361
962.45991	0.94784
960.53114	0.95054
958.60236	0.95236
956.67358	0.95364
954.74480	0.95451
952.81603	0.95503
950.88725	0.95551
948.95847	0.95595
947.02969	0.95594
945.10092	0.95534
943.17214	0.95452
941.24336	0.95397
939.31458	0.95423
937.38581	0.95544
935.45703	0.95700
933.52825	0.95829
931.59947	0.95907
929.67070	0.95942
927.74192	0.95969
925.81314	0.96001
923.88436	0.96027
921.95559	0.96021
920.02681	0.95987
918.09803	0.95961
916.16926	0.95965
914.24048	0.95965
912.31170	0.95921
910.38292	0.95845
908.45415	0.95742
906.52537	0.95552
904.59659	0.95180
902.66781	0.94623
900.73904	0.94078
898.81026	0.93878
896.88148	0.94160
894.95270	0.94688
893.02393	0.95146
891.09515	0.95429
889.16637	0.95575
887.23759	0.95643
885.30882	0.95687
883.38004	0.95722
881.45126	0.95737
879.52249	0.95735
877.59371	0.95728
875.66493	0.95736
873.73615	0.95756
871.80738	0.95747
869.87860	0.95708
867.94982	0.95681
866.02104	0.95686
864.09227	0.95697
862.16349	0.95669
860.23471	0.95600
858.30593	0.95536
856.37716	0.95488
854.44838	0.95430
852.51960	0.95335
850.59082	0.95177
848.66205	0.94909
846.73327	0.94396
844.80449	0.93415
842.87571	0.92145
840.94694	0.91514
839.01816	0.92128
837.08938	0.93311
835.16061	0.94190
833.23183	0.94664
831.30305	0.94945
829.37427	0.95143
827.44550	0.95276
825.51672	0.95337
823.58794	0.95330
821.65916	0.95266
819.73039	0.95176
817.80161	0.95040
815.87283	0.94789
813.94405	0.94392
812.01528	0.93889
810.08650	0.93441
808.15772	0.93313
806.22894	0.93602
804.30017	0.94113
802.37139	0.94587
800.44261	0.94917
798.51384	0.95121
796.58506	0.95239
794.65628	0.95327
792.72750	0.95429
790.79873	0.95533
788.86995	0.95632
786.94117	0.95730
785.01239	0.95820
783.08362	0.95893
781.15484	0.95948
779.22606	0.96006
777.29728	0.96062
775.36851	0.96101
773.43973	0.96123
771.51095	0.96099
769.58217	0.96032
767.65340	0.96002
765.72462	0.96013
763.79584	0.96000
761.86707	0.95976
759.93829	0.95977
758.00951	0.95984
756.08073	0.95981
754.15196	0.95985
752.22318	0.95993
750.29440	0.95991
748.36562	0.96002
746.43685	0.96054
744.50807	0.96113
742.57929	0.96128
740.65051	0.96115
738.72174	0.96086
736.79296	0.96011
734.86418	0.95880
732.93540	0.95712
731.00663	0.95562
729.07785	0.95497
727.14907	0.95501
725.22029	0.95508
723.29152	0.95463
721.36274	0.95374
719.43396	0.95326
717.50519	0.95407
715.57641	0.95605
713.64763	0.95778
711.71885	0.95827
709.79008	0.95811
707.86130	0.95767
705.93252	0.95646
704.00374	0.95453
702.07497	0.95256
700.14619	0.95084
698.21741	0.94982
696.28863	0.95053
694.35986	0.95307
692.43108	0.95583
690.50230	0.95763
688.57352	0.95877
686.64475	0.95969
684.71597	0.96039
682.78719	0.96060
680.85842	0.96028
678.92964	0.95990
677.00086	0.95955
675.07208	0.95903
673.14331	0.95863
671.21453	0.95832
669.28575	0.95792
667.35697	0.95826
665.42820	0.95911
663.49942	0.95975
661.57064	0.96033
659.64186	0.96048
657.71309	0.96004
655.78431	0.95970
653.85553	0.95999
651.92675	0.96049
649.99798	0.96029
648.06920	0.95976
646.14042	0.95989
644.21164	0.96049
642.28287	0.96124
640.35409	0.96170
638.42531	0.96156
636.49654	0.96154
634.56776	0.96174
632.63898	0.96153
630.71020	0.96096
628.78143	0.96029
626.85265	0.96002
624.92387	0.96045
622.99509	0.96116
621.06632	0.96152
619.13754	0.96086
617.20876	0.95988
615.27998	0.96012
613.35121	0.96089
611.42243	0.96090
609.49365	0.96104
607.56487	0.96229
605.63610	0.96347
603.70732	0.96363
601.77854	0.96311
599.84977	0.96233
597.92099	0.96160
595.99221	0.96083
594.06343	0.95999
592.13466	0.95892
590.20588	0.95828
588.27710	0.95973
586.34832	0.96177
584.41955	0.96198
582.49077	0.95995
580.56199	0.95580
578.63321	0.95222
576.70444	0.95124
574.77566	0.95225
572.84688	0.95502
570.91810	0.95640
568.98933	0.95298
567.06055	0.94821
565.13177	0.94660
563.20299	0.94798
561.27422	0.95032
559.34544	0.95102
557.41666	0.95080
555.48789	0.95231
553.55911	0.95373
551.63033	0.95305
549.70155	0.95108
547.77278	0.94858
545.84400	0.94738
543.91522	0.94845
541.98644	0.94936
540.05767	0.94885
538.12889	0.94928
536.20011	0.95106
534.27133	0.95007
532.34256	0.94415
530.41378	0.93601
528.48500	0.92908
526.55622	0.92608
524.62745	0.92885
522.69867	0.93859
520.76989	0.95285
518.84112	0.96003
516.91234	0.95612
514.98356	0.94998
513.05478	0.94341
511.12601	0.93693
509.19723	0.92122
507.26845	0.89567
505.33967	0.89410
503.41090	0.91800
501.48212	0.92273
499.55334	0.88695
497.62456	0.84307
495.69579	0.83173
493.76701	0.83560
491.83823	0.78958
489.90945	0.74026
487.98068	0.78155
486.05190	0.80835
484.12312	0.59070
482.19434	0.29235
480.26557	0.14516
478.33679	0.17870
476.40801	0.41434
474.47924	0.96015
472.55046	2.02372
470.62168	6.41046
468.69290	3.97729
466.76413	1.85747
464.83535	2.30594
462.90657	1.40389
460.97779	1.25575
459.04902	1.23966
457.12024	1.00423
455.19146	0.53882
453.26268	0.09754
451.33391	-0.08759
449.40513	0.08607
